ECG,RSP,EDA,PhotoSensor
0.000762939,5.99609375,11.73400953,5
-0.000610352,5.990600586,11.74621657,5
0.000762939,5.990905762,11.75232008,5
0.002288818,5.985717773,11.75689772,5
0.005340576,5.981750488,11.77063063,5
0.008087158,5.981445313,11.76757887,5
0.010375977,5.975952148,11.78131178,5
0.011444092,5.972290039,11.78131178,5
0.01083374,5.971679688,11.79199293,5
0.010375977,5.966186523,11.79046705,5
0.012969971,5.961608887,11.80267408,5
0.013122559,5.961914063,11.80419996,5
0.012969971,5.956420898,11.81945875,5
0.012969971,5.951538086,11.81488112,5
0.010375977,5.952148438,11.83471754,5
0.017852783,5.946655273,11.84082106,5
0.027618408,5.942077637,11.84387282,5
0.057830811,5.941162109,11.85760573,5
0.056762695,5.9375,11.85607985,5
0.053863525,5.932922363,11.86828688,5
0.055847168,5.932922363,11.87896803,5
0.009613037,5.927734375,11.87896803,5
-0.014190674,5.925292969,11.89117506,5
-0.013885498,5.922851563,11.90490797,5
-0.004272461,5.91796875,11.90338209,5
-0.009002686,5.918579102,11.91406325,5
-0.015258789,5.913085938,11.91864088,5
-0.014953613,5.913391113,11.92932203,5
-0.01159668,5.908508301,11.94000319,5
-0.008850098,5.908813477,11.94152907,5
-0.006256104,5.903320313,11.95221022,5
-0.003967285,5.903625488,11.95526198,5
-0.003967285,5.8984375,11.96136549,5
-0.003814697,5.893859863,11.97357252,5
-0.046844482,5.893249512,11.9750984,5
-0.06652832,5.888977051,11.98883131,5
0.066070557,5.888366699,11.99188307,5
0.545196533,5.885925293,12.00256422,5
1.094512939,5.884094238,12.00256422,5
0.451507568,5.882873535,12.0117195,5
-0.21697998,5.87890625,12.01477125,5
-0.458374023,5.878295898,12.02545241,5
-0.369262695,5.873718262,12.02240065,5
-0.194396973,5.873413086,12.03918532,5
-0.108184814,5.869140625,12.03765944,5
-0.077514648,5.868835449,12.04681471,5
-0.058898926,5.867004395,12.04681471,5
-0.046081543,5.864257813,12.06512526,5
-0.033569336,5.864562988,12.06359938,5
-0.023498535,5.859069824,12.07428053,5
-0.013427734,5.858764648,12.07428053,5
-0.002746582,5.854492188,12.08496168,5
0.00793457,5.85357666,12.0834358,5
0.019073486,5.854187012,12.09716871,5
0.027618408,5.849609375,12.09716871,5
0.037231445,5.850219727,12.1124275,5
0.048522949,5.850219727,12.11090162,5
0.063171387,5.844726563,12.12921217,5
0.078735352,5.844116211,12.12310866,5
0.099487305,5.840148926,12.13226393,5
0.122833252,5.839233398,12.13226393,5
0.144500732,5.835266113,12.13684157,5
0.160827637,5.834960938,12.14599684,5
0.174102783,5.830078125,12.14752272,5
0.176544189,5.825195313,12.15820387,5
0.158081055,5.820617676,12.15972975,5
0.109558105,5.815429688,12.1704109,5
0.029449463,5.810546875,12.17193678,5
-0.055236816,5.80078125,12.18261793,5
-0.127410889,5.796203613,12.18566969,5
-0.174102783,5.791015625,12.19635084,5
-0.202026367,5.781555176,12.19177321,5
-0.210723877,5.777282715,12.207032,5
-0.209350586,5.766601563,12.20855787,5
-0.197296143,5.762023926,12.22229078,5
-0.177612305,5.752258301,12.22076491,5
-0.161895752,5.747375488,12.21771315,5
-0.146026611,5.737304688,12.23602369,5
-0.12878418,5.732727051,12.23297194,5
-0.113983154,5.72265625,12.24212721,5
-0.097198486,5.717773438,12.24823073,5
-0.083465576,5.712280273,12.24212721,5
-0.070343018,5.703125,12.257386,5
-0.059051514,5.698547363,12.257386,5
-0.051727295,5.693664551,12.25280836,5
-0.043029785,5.688171387,12.26806715,5
-0.040740967,5.68359375,12.26959303,5
-0.035552979,5.679016113,12.26501539,5
-0.030822754,5.678405762,12.28027418,5
-0.028533936,5.673522949,12.28027418,5
-0.026092529,5.668640137,12.28332594,5
-0.023803711,5.668334961,12.29400709,5
-0.021209717,5.668640137,12.29248121,5
-0.021209717,5.664672852,12.29400709,5
-0.021362305,5.664367676,12.30468825,5
-0.018615723,5.664367676,12.30774,5
-0.018615723,5.6640625,12.30468825,5
-0.018615723,5.669250488,12.30468825,5
-0.013885498,5.669250488,12.31689528,5
-0.013885498,5.674133301,12.31689528,5
-0.01159668,5.679016113,12.31842116,5
-0.009307861,5.682678223,12.31842116,5
-0.011444092,5.688781738,12.32910231,5
-0.009002686,5.694274902,12.32757643,5
-0.003662109,5.701599121,12.33062819,5
-0.003814697,5.708618164,12.33215407,5
-0.001525879,5.717773438,12.3443611,5
0.000915527,5.727539063,12.34130934,5
0.001068115,5.737609863,12.34283522,5
0.003662109,5.747680664,12.34130934,5
0.000610352,5.760498047,12.35504225,5
0.005950928,5.771789551,12.35351637,5
0.005645752,5.785522461,12.35199049,5
0.003204346,5.796203613,12.35199049,5
0.00579834,5.810546875,12.3657234,5
0.003509521,5.824584961,12.36724928,5
0.007629395,5.837097168,12.3657234,5
0.010528564,5.850219727,12.36724928,5
0.010681152,5.864257813,12.3657234,5
0.011901855,5.87890625,12.37945631,5
0.013122559,5.893249512,12.37945631,5
0.01083374,5.910339355,12.38098219,5
0.012817383,5.924682617,12.37793043,5
0.008239746,5.941772461,12.37793043,5
0.010681152,5.956420898,12.39013746,5
0.007171631,5.971679688,12.39318922,5
0.008087158,5.986328125,12.3947151,5
0.015563965,6.001281738,12.39013746,5
0.028839111,6.015014648,12.38861158,5
0.052947998,6.029663086,12.3947151,5
0.042419434,6.044616699,12.40387037,5
0.051422119,6.059570313,12.40387037,5
0.036468506,6.07635498,12.40387037,5
-0.005950928,6.090698242,12.40387037,5
-0.021057129,6.10534668,12.4023445,5
-0.007629395,6.120605469,12.4023445,5
-0.008850098,6.134643555,12.4023445,5
-0.022277832,6.148681641,12.4023445,5
-0.026092529,6.164550781,12.41149977,5
-0.018768311,6.176757813,12.41607741,5
-0.018768311,6.190795898,12.41912916,5
-0.014038086,6.205444336,12.41302565,5
-0.011749268,6.220703125,12.41455153,5
-0.011291504,6.232299805,12.41760328,5
-0.011444092,6.245117188,12.41607741,5
-0.024414063,6.258544922,12.41760328,5
-0.079803467,6.268920898,12.41607741,5
-0.047149658,6.283569336,12.41455153,5
0.181274414,6.293640137,12.42065504,5
0.864868164,6.30279541,12.41455153,5
0.850372314,6.316223145,12.41302565,5
0.198669434,6.327209473,12.41760328,5
-0.297241211,6.337280273,12.41455153,5
-0.449981689,6.347351074,12.41760328,5
-0.338897705,6.357421875,12.41302565,5
-0.183258057,6.366271973,12.41455153,5
-0.110473633,6.373596191,12.41302565,5
-0.075378418,6.380615234,12.42828444,5
-0.052642822,6.391296387,12.42828444,5
-0.039367676,6.401367188,12.42523268,5
-0.031738281,6.410217285,12.42828444,5
-0.02243042,6.415710449,12.42981032,5
-0.013885498,6.42578125,12.42981032,5
-0.006256104,6.434631348,12.42828444,5
0.003662109,6.43951416,12.42828444,5
0.013275146,6.449584961,12.42828444,5
0.020446777,6.455993652,12.42981032,5
0.03036499,6.464538574,12.42981032,5
0.037231445,6.468811035,12.42828444,5
0.050964355,6.479492188,12.42675856,5
0.065460205,6.483459473,12.42828444,5
0.084991455,6.490783691,12.42675856,5
0.106811523,6.498718262,12.42981032,5
0.127563477,6.502990723,12.42675856,5
0.13885498,6.507263184,12.42828444,5
0.147399902,6.513671875,12.42981032,5
0.149841309,6.51763916,12.42828444,5
0.132751465,6.523132324,12.42828444,5
0.084075928,6.528015137,12.42981032,5
0.015716553,6.530151367,12.43133619,5
-0.057678223,6.532592773,12.42828444,5
-0.11505127,6.538085938,12.42981032,5
-0.15838623,6.541442871,12.41607741,5
-0.177459717,6.54296875,12.41455153,5
-0.178985596,6.547241211,12.41607741,5
-0.171661377,6.547546387,12.41912916,5
-0.159454346,6.552734375,12.41760328,5
-0.14175415,6.553039551,12.41302565,5
-0.125274658,6.55670166,12.41455153,5
-0.110321045,6.557312012,12.41607741,5
-0.096893311,6.557006836,12.41455153,5
-0.079956055,6.562194824,12.41760328,5
-0.070495605,6.562194824,12.41455153,5
-0.065155029,6.561889648,12.41455153,5
-0.058898926,6.561889648,12.41455153,5
-0.049133301,6.562805176,12.41607741,5
-0.040588379,6.566467285,12.41760328,5
-0.036773682,6.567077637,12.41607741,5
-0.033111572,6.566162109,12.4023445,5
-0.026092529,6.566772461,12.40692213,5
-0.021362305,6.567382813,12.4023445,5
-0.021514893,6.5625,12.40844801,5
-0.021057129,6.5625,12.40539625,5
-0.018615723,6.561584473,12.40692213,5
-0.016174316,6.561584473,12.40539625,5
-0.016174316,6.557312012,12.40539625,5
-0.010528564,6.557006836,12.4023445,5
-0.011138916,6.557617188,12.40387037,5
-0.006408691,6.554870605,12.3947151,5
-0.006713867,6.552734375,12.39013746,5
-0.006408691,6.552734375,12.39166334,5
-0.004119873,6.547851563,12.39318922,5
-0.003662109,6.548156738,12.39318922,5
-0.001525879,6.542663574,12.39318922,5
0.000915527,6.54296875,12.39013746,5
0.005645752,6.542358398,12.39166334,5
0.00579834,6.538085938,12.39166334,5
0.005493164,6.538391113,12.37793043,5
0.00579834,6.532287598,12.37945631,5
0.005645752,6.532897949,12.37945631,5
0.008087158,6.528625488,12.37945631,5
0.010528564,6.527709961,12.37945631,5
0.020141602,6.527404785,12.37945631,5
0.033569336,6.522521973,12.38250807,5
0.064086914,6.522521973,12.37945631,5
0.056610107,6.518554688,12.3657234,5
0.061035156,6.514282227,12.36724928,5
0.05065918,6.514282227,12.36877516,5
0.004882813,6.508483887,12.3657234,5
-0.016479492,6.508789063,12.36724928,5
-0.011138916,6.503295898,12.3657234,5
-0.003967285,6.499328613,12.36724928,5
-0.011444092,6.493835449,12.35809401,5
-0.016021729,6.489562988,12.35504225,5
-0.016174316,6.488342285,12.35351637,5
-0.013885498,6.483459473,12.35504225,5
-0.007171631,6.47857666,12.35351637,5
-0.006103516,6.473999023,12.35656813,5
-0.006561279,6.469116211,12.35351637,5
-0.001068115,6.464233398,12.3443611,5
0.00579834,6.459350586,12.3443611,5
-0.018615723,6.455078125,12.3443611,5
-0.065002441,6.449279785,12.34283522,5
0.006256104,6.4453125,12.34283522,5
0.343017578,6.440429688,12.3443611,5
1.0496521,6.434631348,12.34130934,5
0.710144043,6.430053711,12.33215407,5
-0.008087158,6.424865723,12.33215407,5
-0.410003662,6.41998291,12.32757643,5
-0.415649414,6.410827637,12.32910231,5
-0.249481201,6.405639648,12.33062819,5
-0.12802124,6.401367188,12.32910231,5
-0.080108643,6.395568848,12.32910231,5
-0.062408447,6.386413574,12.31689528,5
-0.045623779,6.381530762,12.31994703,5
-0.033416748,6.37298584,12.31689528,5
-0.019073486,6.3671875,12.32299879,5
-0.011444092,6.357116699,12.31689528,5
-0.004425049,6.352233887,12.31689528,5
0.003356934,6.34185791,12.30468825,5
0.012054443,6.33605957,12.30468825,5
0.020599365,6.328430176,12.30468825,5
0.031738281,6.318359375,12.30621412,5
0.04196167,6.307983398,12.30468825,5
0.059356689,6.301269531,12.30621412,5
0.073547363,6.294250488,12.30621412,5
0.095825195,6.283569336,12.29400709,5
0.117797852,6.274414063,12.29095533,5
0.13885498,6.262512207,12.29248121,5
0.157165527,6.250305176,12.29248121,5
0.170593262,6.239929199,12.29248121,5
0.178222656,6.230773926,12.29248121,5
0.166778564,6.215820313,12.29095533,5
0.124664307,6.203613281,12.28332594,5
0.054626465,6.191101074,12.2787483,5
-0.035705566,6.177062988,12.28180006,5
-0.1171875,6.162414551,12.28332594,5
-0.173950195,6.150817871,12.27722242,5
-0.206756592,6.137695313,12.28027418,5
-0.218963623,6.123352051,12.28332594,5
-0.21697998,6.108398438,12.26654127,5
-0.202178955,6.09375,12.26654127,5
-0.187530518,6.079101563,12.26959303,5
-0.171508789,6.066894531,12.26959303,5
-0.15411377,6.0546875,12.26806715,5
-0.137481689,6.039123535,12.26806715,5
-0.121459961,6.025085449,12.257386,5
-0.104370117,6.011352539,12.257386,5
-0.08605957,6.001281738,12.25433424,5
-0.074920654,5.986328125,12.257386,5
-0.065460205,5.973815918,12.25586012,5
-0.055236816,5.961608887,12.257386,5
-0.045471191,5.949707031,12.25891188,5
-0.038452148,5.937194824,12.24517897,5
-0.030975342,5.927124023,12.24670485,5
-0.025939941,5.917663574,12.24060133,5
-0.026245117,5.908508301,12.24212721,5
-0.023803711,5.898132324,12.24670485,5
-0.023651123,5.888366699,12.24212721,5
-0.023956299,5.87890625,12.23297194,5
-0.023498535,5.869140625,12.23449782,5
-0.023651123,5.859375,12.23297194,5
-0.018768311,5.854797363,12.23449782,5
-0.018615723,5.844726563,12.23449782,5
-0.016174316,5.83984375,12.23144606,5
-0.013885498,5.832824707,12.22992018,5
-0.012359619,5.825195313,12.22076491,5
-0.00869751,5.819702148,12.21923903,5
-0.006408691,5.815124512,12.22229078,5
-0.004119873,5.810546875,12.22076491,5
-0.001525879,5.805664063,12.21923903,5
0.003509521,5.801086426,12.22229078,5
0.000762939,5.795898438,12.21466139,5
0.001068115,5.795288086,12.20855787,5
0.004577637,5.791320801,12.20855787,5
0.005493164,5.786437988,12.207032,5
0.005645752,5.785827637,12.20855787,5
0.003356934,5.78125,12.207032,5
0.005493164,5.78125,12.20855787,5
0.007781982,5.776062012,12.19635084,5
0.00793457,5.776367188,12.19635084,5
0.008544922,5.772094727,12.19329908,5
0.01083374,5.771789551,12.19482496,5
0.008239746,5.771789551,12.19329908,5
0.009460449,5.772094727,12.18566969,5
0.008239746,5.771484375,12.18261793,5
0.005645752,5.766601563,12.18414381,5
0.010986328,5.766601563,12.18566969,5
0.016174316,5.766601563,12.1704109,5
0.045318604,5.766906738,12.16888502,5
0.063781738,5.767211914,12.17346266,5
0.057067871,5.766296387,12.1704109,5
0.06439209,5.765686035,12.17193678,5
0.031738281,5.766906738,12.16888502,5
-0.00289917,5.766601563,12.16125563,5
-0.018920898,5.765991211,12.16125563,5
-0.009155273,5.766906738,12.16125563,5
-0.010223389,5.771484375,12.15972975,5
-0.021057129,5.771179199,12.15820387,5
-0.021057129,5.771484375,12.16125563,5
-0.018310547,5.771484375,12.14752272,5
-0.016326904,5.771789551,12.15057448,5
-0.011749268,5.771484375,12.15057448,5
-0.010986328,5.771484375,12.14599684,5
-0.004272461,5.776062012,12.14752272,5
-0.001525879,5.776977539,12.1490486,5
-0.012512207,5.776672363,12.14752272,5
-0.067443848,5.776367188,12.1490486,5
-0.022888184,5.776367188,12.13684157,5
0.251464844,5.776672363,12.13684157,5
0.959472656,5.78125,12.13073805,5
0.818023682,5.78125,12.13378981,5
0.051422119,5.780639648,12.13378981,5
-0.404205322,5.780944824,12.13073805,5
-0.430297852,5.780639648,12.13531569,5
-0.270385742,5.785217285,12.12310866,5
-0.136108398,5.785827637,12.12158278,5
-0.08605957,5.786132813,12.12310866,5
-0.061340332,5.786132813,12.12158278,5
-0.045471191,5.791015625,12.12310866,5
-0.033569336,5.790405273,12.12310866,5
-0.021209717,5.790405273,12.12310866,5
-0.014190674,5.791320801,12.12310866,5
-0.006713867,5.795593262,12.10937575,5
0.001983643,5.795593262,12.11090162,5
0.008087158,5.796203613,12.1124275,5
0.015869141,5.800476074,12.10784987,5
0.028991699,5.80078125,12.11090162,5
0.042114258,5.80078125,12.11090162,5
0.055389404,5.805664063,12.1124275,5
0.06652832,5.805053711,12.10937575,5
0.076293945,5.805053711,12.09716871,5
0.095825195,5.810852051,12.09869459,5
0.119018555,5.810241699,12.09869459,5
0.138702393,5.810241699,12.09564283,5
0.156860352,5.810241699,12.10022047,5
0.159759521,5.815734863,12.09716871,5
0.155029297,5.815429688,12.09564283,5
0.133972168,5.815124512,12.09869459,5
0.068359375,5.821533203,12.08648756,5
-0.009918213,5.819702148,12.08496168,5
-0.087127686,5.8203125,12.08496168,5
-0.151672363,5.825195313,12.08801344,5
-0.191345215,5.824890137,12.08648756,5
-0.202026367,5.830383301,12.08496168,5
-0.202484131,5.830383301,12.0834358,5
-0.19744873,5.834960938,12.08801344,5
-0.190734863,5.83404541,12.07580641,5
-0.17074585,5.840148926,12.07275465,5
-0.147247314,5.845031738,12.07428053,5
-0.13885498,5.848388672,12.07122877,5
-0.116882324,5.849609375,12.07275465,5
-0.104217529,5.854187012,12.07428053,5
-0.094604492,5.859680176,12.07580641,5
-0.076293945,5.864257813,12.07275465,5
-0.058898926,5.872802734,12.07428053,5
-0.055236816,5.878601074,12.06054762,5
-0.045623779,5.883789063,12.0620735,5
-0.045623779,5.888061523,12.0620735,5
-0.037994385,5.8984375,12.06054762,5
-0.027313232,5.903625488,12.06054762,5
-0.023651123,5.911560059,12.0620735,5
-0.025787354,5.91796875,12.06359938,5
-0.026092529,5.926818848,12.0620735,5
-0.014190674,5.936584473,12.04834059,5
-0.016174316,5.942077637,12.04834059,5
-0.018920898,5.952148438,12.04834059,5
-0.028381348,5.962524414,12.05139235,5
-0.020904541,5.975646973,12.05139235,5
-0.021057129,5.986328125,12.04986647,5
-0.01373291,5.996398926,12.04834059,5
-0.00869751,6.008605957,12.05139235,5
-0.006408691,6.019897461,12.05139235,5
-0.011291504,6.034545898,12.03765944,5
-0.003814697,6.044921875,12.04071119,5
0.004425049,6.055297852,12.03765944,5
0.013275146,6.07421875,12.03765944,5
0.000915527,6.088867188,12.03460768,5
-0.00289917,6.103515625,12.03460768,5
-0.021057129,6.117858887,12.03918532,5
-0.012817383,6.131591797,12.03765944,5
0.015106201,6.145324707,12.04071119,5
0.013275146,6.159362793,12.04071119,5
0.017547607,6.172485352,12.02392653,5
0.013122559,6.185913086,12.02850416,5
0.059356689,6.200561523,12.02850416,5
0.003662109,6.215820313,12.02392653,5
0.006866455,6.229858398,12.02392653,5
0.032653809,6.244506836,12.02850416,5
0.035247803,6.258544922,12.02392653,5
0.050506592,6.273803711,12.02697828,5
0.048217773,6.283569336,12.02545241,5
-0.018615723,6.298828125,12.02240065,5
-0.028686523,6.311035156,12.01324537,5
-0.025787354,6.317443848,12.01324537,5
-0.022277832,6.337585449,12.0117195,5
-0.012817383,6.351318359,12.0117195,5
-0.013427734,6.362304688,12.0117195,5
-0.03112793,6.375427246,12.01324537,5
-0.026245117,6.386108398,12.01324537,5
-0.016174316,6.395874023,12.01477125,5
-0.024871826,6.410522461,12.01324537,5
0.000762939,6.421203613,12.01324537,5
-0.000457764,6.430664063,12.01019362,5
-0.003967285,6.444091797,11.99951246,5
-0.056152344,6.454772949,12.00256422,5
-0.083312988,6.46484375,12.00103834,5
0.062713623,6.473693848,11.99798658,5
0.570220947,6.483154297,12.00103834,5
0.975341797,6.498413086,11.99951246,5
0.415344238,6.507873535,11.99951246,5
-0.142211914,6.51763916,12.00103834,5
-0.436248779,6.528320313,12.00103834,5
-0.397033691,6.53717041,11.99798658,5
-0.233917236,6.546936035,11.98883131,5
-0.116577148,6.55670166,11.98730543,5
-0.092468262,6.565856934,11.99035719,5
-0.065307617,6.573791504,11.98577955,5
-0.054168701,6.584777832,11.99035719,5
-0.024719238,6.592102051,11.98730543,5
-0.009307861,6.600646973,11.99035719,5
-0.006561279,6.611328125,11.99035719,5
0.006713867,6.62109375,11.98883131,5
0.015106201,6.630249023,11.99035719,5
0.022888184,6.640930176,11.97662428,5
0.030212402,6.649475098,11.97357252,5
0.034942627,6.659240723,11.97662428,5
0.04119873,6.669311523,11.97662428,5
0.056304932,6.6796875,11.97662428,5
0.063934326,6.686096191,11.9750984,5
0.076446533,6.693725586,11.97357252,5
0.090942383,6.703491211,11.9750984,5
0.106658936,6.713256836,11.97662428,5
0.117797852,6.72088623,11.97815016,5
0.122833252,6.727905273,11.96289137,5
0.12298584,6.737670898,11.96441725,5
0.11428833,6.742858887,11.96289137,5
0.077667236,6.752624512,11.96594313,5
0.010681152,6.759643555,11.96441725,5
-0.062866211,6.766662598,11.96899489,5
-0.122375488,6.773681641,11.96594313,5
-0.157775879,6.781005859,11.96441725,5
-0.175323486,6.786804199,11.96594313,5
-0.177764893,6.796264648,11.96289137,5
-0.170288086,6.801147461,11.96594313,5
-0.156097412,6.810302734,11.96441725,5
-0.142364502,6.814880371,11.94915846,5
-0.123901367,6.820983887,11.95068434,5
-0.109405518,6.83013916,11.95221022,5
-0.094451904,6.834411621,11.95221022,5
-0.078430176,6.840209961,11.95221022,5
-0.061798096,6.84967041,11.95221022,5
-0.054321289,6.854248047,11.9537361,5
-0.045623779,6.859741211,11.95221022,5
-0.036010742,6.864318848,11.95068434,5
-0.030670166,6.864318848,11.95221022,5
-0.021362305,6.865234375,11.95221022,5
-0.016326904,6.864624023,11.9537361,5
-0.01373291,6.864318848,11.95221022,5
-0.011444092,6.864624023,11.94152907,5
-0.004882813,6.864624023,11.94000319,5
-0.001831055,6.864624023,11.93847731,5
-0.001373291,6.864624023,11.94000319,5
0.000305176,6.864624023,11.93847731,5
0.003356934,6.864929199,11.94152907,5
0.00579834,6.864318848,11.94305494,5
0.008087158,6.863708496,11.94458082,5
0.010375977,6.913146973,11.94152907,5
0.003204346,6.918029785,11.94000319,5
0.003509521,6.923522949,11.94305494,5
0.005950928,6.928100586,11.94000319,5
0.005340576,6.932678223,11.94152907,5
0.005645752,6.937255859,11.92779616,5
0.008087158,6.942443848,11.92932203,5
0.015869141,6.946716309,11.93084791,5
0.026855469,6.952819824,11.92779616,5
0.053100586,6.956787109,11.92932203,5
0.052032471,6.961975098,11.92932203,5
0.053100586,6.966552734,11.92627028,5
0.055847168,6.971740723,11.92779616,5
0.012054443,6.976318359,11.92932203,5
-0.013885498,6.981506348,11.92779616,5
-0.011444092,6.986694336,11.92779616,5
-0.001373291,6.986083984,11.92932203,5
-0.011291504,6.991882324,11.91558912,5
-0.016326904,6.995849609,11.91558912,5
-0.013427734,7.001342773,11.917115,5
-0.011138916,7.003173828,11.917115,5
-0.004272461,7.006225586,11.91558912,5
-0.001678467,7.010498047,11.917115,5
-0.001678467,7.015075684,11.917115,5
0.000457764,7.016601563,11.91406325,5
0.000762939,7.020874023,11.917115,5
-0.043029785,7.020568848,11.91558912,5
-0.061645508,7.02545166,11.917115,5
0.063171387,7.030029297,11.91864088,5
0.48538208,7.030334473,11.90338209,5
1.040344238,7.036132813,11.90338209,5
0.547790527,7.035522461,11.90643385,5
-0.061798096,7.040710449,11.90643385,5
-0.403137207,7.040100098,11.90490797,5
-0.394744873,7.044677734,11.90338209,5
-0.241088867,7.044677734,11.90338209,5
-0.133056641,7.049865723,11.90490797,5
-0.086364746,7.050170898,11.90338209,5
-0.062561035,7.054748535,11.90490797,5
-0.046691895,7.054748535,11.90185621,5
-0.035705566,7.059020996,11.90338209,5
-0.028991699,7.059326172,11.90643385,5
-0.016479492,7.06451416,11.89270094,5
-0.006408691,7.06451416,11.89270094,5
-0.001678467,7.06451416,11.89270094,5
0.003356934,7.069091797,11.89117506,5
0.013122559,7.069396973,11.89117506,5
0.026397705,7.069702148,11.88964918,5
0.037689209,7.069091797,11.89117506,5
0.049285889,7.069091797,11.89117506,5
0.064239502,7.069702148,11.87896803,5
0.083618164,7.068786621,11.87896803,5
0.106811523,7.069091797,11.88049391,5
0.129394531,7.069091797,11.87744215,5
0.144500732,7.069091797,11.87591627,5
0.152282715,7.064819336,11.87744215,5
0.149841309,7.06451416,11.88049391,5
0.139007568,7.059936523,11.866761,5
0.102386475,7.054138184,11.86218336,5
0.032196045,7.055053711,11.86523512,5
-0.048828125,7.050170898,11.866761,5
-0.112609863,7.04498291,11.866761,5
-0.152282715,7.040405273,11.86523512,5
-0.176544189,7.031860352,11.86828688,5
-0.185394287,7.025756836,11.86523512,5
-0.180358887,7.020568848,11.866761,5
-0.168609619,7.011108398,11.86523512,5
-0.153198242,7.006225586,11.86828688,5
-0.136108398,6.997070313,11.866761,5
-0.119018555,6.986694336,11.85455397,5
-0.103149414,6.977233887,11.85302809,5
-0.089874268,6.970214844,11.85455397,5
-0.073852539,6.960144043,11.85607985,5
-0.063018799,6.950378418,11.85607985,5
-0.055389404,6.938476563,11.85455397,5
-0.048065186,6.927490234,11.85607985,5
-0.038604736,6.918640137,11.85302809,5
-0.035705566,6.908569336,11.85302809,5
-0.033111572,6.89453125,11.85302809,5
-0.026245117,6.884765625,11.85302809,5
-0.021209717,6.874389648,11.85455397,5
-0.021362305,6.860351563,11.85455397,5
-0.023956299,6.850585938,11.85760573,5
-0.021209717,6.835021973,11.85302809,5
-0.021057129,6.825256348,11.85607985,5
-0.016326904,6.81060791,11.85455397,5
-0.018768311,6.796875,11.85607985,5
-0.010986328,6.787109375,11.84234694,5
-0.01159668,6.771240234,11.84082106,5
-0.011138916,6.757507324,11.84234694,5
-0.009307861,6.743774414,11.84234694,5
-0.006561279,6.733398438,11.83929518,5
-0.003814697,6.71875,11.84082106,5
-0.001220703,6.703186035,11.84387282,5
0.000762939,6.688842773,11.8377693,5
0.000915527,6.673583984,11.84387282,5
0.000915527,6.66229248,11.84234694,5
0.000915527,6.650390625,11.84539869,5
0.001068115,6.635131836,11.84387282,5
0.010681152,6.62109375,11.84539869,5
0.021972656,6.606140137,11.84387282,5
0.053863525,6.591796875,11.84082106,5
0.056762695,6.581115723,11.84234694,5
0.057067871,6.567077637,11.84387282,5
0.050811768,6.553039551,11.84234694,5
0.007019043,6.542663574,11.84539869,5
-0.018310547,6.528320313,11.84387282,5
-0.019226074,6.514282227,11.84234694,5
-0.006561279,6.50390625,11.83929518,5
-0.01373291,6.489257813,11.84387282,5
-0.023651123,6.478881836,11.84082106,5
-0.021514893,6.464233398,11.84082106,5
-0.012664795,6.454772949,11.84387282,5
-0.006561279,6.440429688,11.84539869,5
-0.004119873,6.430053711,11.84234694,5
0.000762939,6.416015625,11.84082106,5
0.003509521,6.405944824,11.84234694,5
0.001068115,6.395874023,11.84082106,5
-0.046386719,6.383666992,11.84387282,5
-0.04699707,6.371459961,11.84082106,5
0.122833252,6.361694336,11.84234694,5
0.665435791,6.352539063,11.84234694,5
1.094207764,6.342163086,11.85607985,5
0.381164551,6.332702637,11.85302809,5
-0.254669189,6.322937012,11.84997633,5
-0.463562012,6.313476563,11.85455397,5
-0.356140137,6.303405762,11.85302809,5
-0.180969238,6.293945313,11.85302809,5
-0.105895996,6.28326416,11.85455397,5
-0.038757324,6.273498535,11.85302809,5
-0.029296875,6.264038086,11.85302809,5
-0.063476563,6.254272461,11.86523512,5
-0.080108643,6.244812012,11.866761,5
-0.049591064,6.235046387,11.86523512,5
-0.012664795,6.225585938,11.86981276,5
-0.006561279,6.216125488,11.86523512,5
0.064544678,6.207885742,11.86828688,5
0.04989624,6.200866699,11.87744215,5
0.057830811,6.190795898,11.88049391,5
0.013275146,6.181640625,11.87744215,5
0.032348633,6.171875,11.88049391,5
0.079498291,6.162109375,11.89270094,5
0.106964111,6.152038574,11.89270094,5
0.114135742,6.142578125,11.89270094,5
0.164489746,6.1328125,11.90033033,5
0.133056641,6.118469238,11.90338209,5
0.110473633,6.108093262,11.90338209,5
0.138549805,6.093139648,11.91406325,5
0.16784668,6.081542969,11.91558912,5
0.136566162,6.069030762,11.91406325,5
0.110931396,6.0546875,11.91558912,5
0.057067871,6.039733887,11.92627028,5
-0.111846924,6.024780273,11.92932203,5
-0.177612305,6.010437012,11.92779616,5
-0.196838379,5.99609375,11.93847731,5
-0.230102539,5.982055664,11.93542555,5
-0.215759277,5.965881348,11.93847731,5
-0.164489746,5.952148438,11.9537361,5
-0.151672363,5.936889648,11.95068434,5
-0.214385986,5.920410156,11.9537361,5
-0.185089111,5.90423584,11.96441725,5
-0.145111084,5.889282227,11.96899489,5
-0.116729736,5.873718262,11.96594313,5
-0.10055542,5.859375,11.97815016,5
-0.086975098,5.845031738,11.9750984,5
-0.079803467,5.829772949,11.97357252,5
-0.065460205,5.815429688,11.99035719,5
-0.05065918,5.800170898,11.99035719,5
-0.045776367,5.786437988,11.99188307,5
-0.040588379,5.771789551,12.00103834,5
-0.035858154,5.756835938,12.00103834,5
-0.030822754,5.744934082,12.0040901,5
-0.03326416,5.733032227,12.01477125,5
-0.02822876,5.718078613,12.01324537,5
-0.026397705,5.708312988,12.02697828,5
-0.023651123,5.696411133,12.02697828,5
-0.020904541,5.683898926,12.02392653,5
-0.018615723,5.674133301,12.03613356,5
-0.023651123,5.664672852,12.03460768,5
-0.023956299,5.65032959,12.03918532,5
-0.018615723,5.639953613,12.05139235,5
-0.018615723,5.629882813,12.05139235,5
-0.014801025,5.619506836,12.05596998,5
-0.011291504,5.610656738,12.06054762,5
-0.003967285,5.599060059,12.06512526,5
-0.008850098,5.586547852,12.07122877,5
-0.00869751,5.576782227,12.07275465,5
-0.006408691,5.567321777,12.07580641,5
-0.002288818,5.557250977,12.08648756,5
-0.003967285,5.546569824,12.08648756,5
-0.006561279,5.537414551,12.09716871,5
-0.003814697,5.52734375,12.10022047,5
-0.000457764,5.513000488,12.10937575,5
0.003356934,5.503540039,12.10937575,5
0.00579834,5.493774414,12.10937575,5
0.003204346,5.483703613,12.12158278,5
0.003356934,5.474243164,12.12310866,5
0.005645752,5.463562012,12.13531569,5
0.008392334,5.454406738,12.13989332,5
0.010681152,5.444641113,12.14447096,5
0.010681152,5.434875488,12.14752272,5
0.012969971,5.424499512,12.15972975,5
0.020599365,5.415649414,12.16125563,5
0.032196045,5.41015625,12.17193678,5
0.066680908,5.400695801,12.17193678,5
0.061798096,5.390319824,12.18414381,5
0.067596436,5.386352539,12.18566969,5
0.067749023,5.376281738,12.19482496,5
0.014648438,5.371704102,12.19635084,5
-0.013580322,5.361938477,12.21008375,5
-0.016479492,5.356445313,12.20855787,5
-0.009002686,5.349121094,12.21771315,5
-0.014038086,5.342407227,12.21771315,5
-0.019836426,5.337524414,12.23297194,5
-0.019836426,5.332336426,12.23144606,5
-0.011444092,5.327758789,12.23144606,5
-0.008850098,5.322265625,12.24670485,5
-0.003662109,5.317993164,12.24365309,5
-0.001525879,5.313110352,12.25128248,5
-0.001220703,5.308837891,12.25891188,5
-0.007629395,5.307922363,12.25891188,5
-0.066223145,5.303649902,12.26348951,5
-0.05355835,5.298461914,12.26806715,5
0.163726807,5.298461914,12.26959303,5
0.798034668,5.293273926,12.28180006,5
1.00769043,5.293884277,12.28027418,5
0.217132568,5.288391113,12.28027418,5
-0.358123779,5.288391113,12.28332594,5
-0.451812744,5.288085938,12.29095533,5
-0.303344727,5.283508301,12.29248121,5
-0.153656006,5.283813477,12.29095533,5
-0.10055542,5.284118652,12.30468825,5
-0.077667236,5.283508301,12.30774,5
-0.059204102,5.278625488,12.30774,5
-0.045623779,5.278320313,12.31689528,5
-0.03326416,5.278930664,12.31842116,5
-0.022125244,5.278625488,12.31842116,5
-0.009002686,5.278625488,12.31994703,5
0.003356934,5.278625488,12.33062819,5
0.012969971,5.283508301,12.33367994,5
0.022735596,5.283813477,12.33215407,5
0.034942627,5.283508301,12.34283522,5
0.04486084,5.283203125,12.33978346,5
0.055847168,5.283508301,12.34130934,5
0.070495605,5.283508301,12.33978346,5
0.087280273,5.283813477,12.35046461,5
0.105133057,5.283508301,12.35504225,5
0.125274658,5.284118652,12.35504225,5
0.143585205,5.283813477,12.35504225,5
0.15914917,5.278015137,12.35351637,5
0.169219971,5.278930664,12.36724928,5
0.169067383,5.2734375,12.36724928,5
0.146026611,5.268859863,12.36724928,5
0.085449219,5.263671875,12.36724928,5
0.002593994,5.259399414,12.3657234,5
-0.080718994,5.249328613,12.36877516,5
-0.144500732,5.244140625,12.38098219,5
-0.18371582,5.234680176,12.38098219,5
-0.204315186,5.229492188,12.37640455,5
-0.207061768,5.220031738,12.38098219,5
-0.199737549,5.210876465,12.37793043,5
-0.184936523,5.204772949,12.38098219,5
-0.168457031,5.195922852,12.39166334,5
-0.1512146,5.185241699,12.39318922,5
-0.13381958,5.178222656,12.39013746,5
-0.120239258,5.170898438,12.39013746,5
-0.106964111,5.161437988,12.4023445,5
-0.091247559,5.156860352,12.40539625,5
-0.078735352,5.146789551,12.40692213,5
-0.067443848,5.141906738,12.4023445,5
-0.057983398,5.132141113,12.41455153,5
-0.05279541,5.127868652,12.41760328,5
-0.046081543,5.122070313,12.41760328,5
-0.038299561,5.11505127,12.41607741,5
-0.033416748,5.108337402,12.42828444,5
-0.028533936,5.102844238,12.42981032,5
-0.028533936,5.098266602,12.43133619,5
-0.028839111,5.095825195,12.43133619,5
-0.026092529,5.093078613,12.42828444,5
-0.021514893,5.087585449,12.42828444,5
-0.018768311,5.08392334,12.42981032,5
-0.018920898,5.083618164,12.42523268,5
-0.016174316,5.079040527,12.42675856,5
-0.01373291,5.078735352,12.43896559,5
-0.01159668,5.074462891,12.44049147,5
-0.009155273,5.074768066,12.44049147,5
-0.006866455,5.074462891,12.43896559,5
-0.006561279,5.069580078,12.44201735,5
-0.001983643,5.069274902,12.44201735,5
0.000457764,5.069885254,12.43896559,5
0.003509521,5.069580078,12.44201735,5
0.00579834,5.069274902,12.44201735,5
0.005645752,5.069580078,12.44049147,5
0.007781982,5.069274902,12.43896559,5
-0.001068115,5.074157715,12.44049147,5
0.003356934,5.074157715,12.44201735,5
0.003204346,5.074768066,12.43743971,5
0.009460449,5.079040527,12.44049147,5
0.013275146,5.079040527,12.44201735,5
0.008544922,5.083618164,12.43896559,5
0.005493164,5.083618164,12.45727614,5
0.010681152,5.087890625,12.45117262,5
0.010681152,5.088500977,12.45422438,5
0.011901855,5.093078613,12.46643141,5
0.012969971,5.097961426,12.46490553,5
0.018157959,5.097961426,12.47711256,5
0.031280518,5.102844238,12.47558668,5
0.060272217,5.107727051,12.47558668,5
0.05645752,5.11138916,12.49084547,5
0.059051514,5.112609863,12.49084547,5
0.058135986,5.1171875,12.48779371,5
0.012054443,5.123291016,12.48931959,5
-0.011291504,5.127258301,12.50000075,5
-0.01159668,5.127868652,12.50152662,5
-0.004119873,5.132446289,12.5030525,5
-0.01159668,5.137023926,12.5030525,5
-0.020904541,5.141601563,12.5030525,5
-0.021057129,5.146484375,12.51220778,5
-0.016174316,5.147094727,12.51678541,5
-0.016174316,5.151367188,12.51373366,5
-0.011444092,5.15625,12.51525953,5
-0.006408691,5.161437988,12.51220778,5
-0.009002686,5.166625977,12.52441481,5
-0.019989014,5.166931152,12.52594069,5
-0.081481934,5.171508789,12.52594069,5
-0.057067871,5.176086426,12.52441481,5
0.202331543,5.180664063,12.53814772,5
0.919189453,5.185852051,12.5396736,5
0.895080566,5.191040039,12.53662184,5
0.126342773,5.1953125,12.53662184,5
-0.377044678,5.200805664,12.55340651,5
-0.450744629,5.205383301,12.54882887,5
-0.306091309,5.210266113,12.5610359,5
-0.160827637,5.215454102,12.5610359,5
-0.104675293,5.223083496,12.56408766,5
-0.077514648,5.230102539,12.57324293,5
-0.057983398,5.234985352,12.57476881,5
-0.044403076,5.239562988,12.58850172,5
-0.03112793,5.245056152,12.58544996,5
-0.023498535,5.249633789,12.597657,5
-0.018615723,5.258483887,12.61138991,5
-0.004882813,5.263977051,12.61138991,5
0.005493164,5.268859863,12.62359694,5
0.015258789,5.278625488,12.62359694,5
0.022735596,5.283203125,12.63427809,5
0.031585693,5.293273926,12.63427809,5
0.040893555,5.297851563,12.648011,5
0.052947998,5.308227539,12.66326979,5
0.070343018,5.313110352,12.65869215,5
0.089569092,5.322875977,12.67242506,5
0.109100342,5.327758789,12.67089918,5
0.127410889,5.337219238,12.68615797,5
0.142211914,5.341796875,12.69989088,5
0.154571533,5.352478027,12.698365,5
0.154876709,5.35736084,12.71209791,5
0.13168335,5.366821289,12.70904616,5
0.075073242,5.371704102,12.71820143,5
0.000152588,5.379943848,12.73651198,5
-0.070953369,5.386352539,12.74566725,5
-0.132293701,5.395202637,12.74414137,5
-0.167999268,5.400085449,12.7563484,5
-0.182647705,5.410766602,12.77008131,5
-0.180511475,5.417480469,12.78228834,5
-0.172729492,5.424804688,12.7929695,5
-0.161895752,5.435180664,12.79602125,5
-0.147247314,5.444641113,12.81128004,5
-0.129699707,5.45501709,12.81890944,5
-0.114440918,5.464172363,12.83111647,5
-0.102844238,5.474243164,12.84179762,5
-0.088500977,5.483703613,12.85705641,5
-0.077514648,5.495910645,12.85553053,5
-0.067596436,5.508422852,12.86773756,5
-0.062713623,5.517883301,12.87841871,5
-0.052947998,5.530090332,12.8936775,5
-0.043640137,5.542602539,12.90741041,5
-0.039367676,5.557250977,12.91503981,5
-0.033569336,5.565795898,12.91656569,5
-0.025939941,5.581359863,12.9302986,5
-0.023803711,5.595092773,12.94250563,5
-0.021362305,5.608825684,12.95318678,5
-0.018920898,5.620422363,12.96234205,5
-0.020751953,5.635070801,12.97607496,5
-0.018768311,5.648498535,12.97607496,5
-0.018615723,5.6640625,12.98980787,5
-0.018615723,5.678100586,13.00201491,5
-0.014038086,5.693359375,13.01422194,5
-0.013885498,5.708312988,13.02337721,5
-0.013885498,5.723266602,13.03711012,5
-0.005187988,5.737304688,13.04626539,5
-0.006408691,5.754699707,13.06152418,5
-0.004119873,5.769042969,13.07373121,5
-0.003967285,5.785522461,13.08288649,5
-0.001678467,5.800170898,13.09814528,5
-0.001373291,5.815124512,13.11187819,5
0.000762939,5.830078125,13.12255934,5
0.001068115,5.844116211,13.13476637,5
0.000762939,5.858764648,13.14544752,5
0.008239746,5.874328613,13.16070631,5
0.010681152,5.888061523,13.16986158,5
0.015563965,5.903015137,13.1835945,5
0.028839111,5.918273926,13.19580153,5
0.052032471,5.932617188,13.21563795,5
0.047149658,5.947570801,13.2339485,5
0.061798096,5.961608887,13.24462965,5
0.045776367,5.9765625,13.25988844,5
0.00579834,5.990905762,13.26751783,5
-0.016326904,6.006164551,13.28125075,5
-0.010986328,6.020507813,13.29498366,5
-0.011749268,6.034545898,13.30566481,5
-0.011444092,6.044311523,13.31939772,5
-0.011444092,6.059570313,13.33923414,5
-0.010986328,6.073913574,13.35449293,5
-0.011138916,6.088256836,13.36669996,5
-0.011444092,6.098327637,13.378907,5
-0.011444092,6.11328125,13.38806227,5
-0.011138916,6.126098633,13.41400221,5
-0.011444092,6.137390137,13.42620924,5
-0.011444092,6.152038574,13.44146803,5
-0.011444092,6.162109375,13.45520094,5
-0.01159668,6.171569824,13.46588209,5
-0.102844238,6.186523438,13.49029616,5
0.511322021,6.196594238,13.50402907,5
0.617523193,6.205444336,13.51165846,5
-0.008239746,6.215515137,13.52233961,5
-0.507507324,6.225585938,13.53912428,5
-0.663299561,6.235351563,13.55133131,5
-0.546722412,6.24420166,13.5742195,5
-0.365447998,6.254882813,13.58795241,5
-0.267181396,6.263122559,13.59863356,5
-0.223083496,6.269836426,13.61084059,5
-0.186004639,6.278381348,13.62304762,5
-0.154571533,6.283874512,13.63525465,5
-0.148620605,6.288452148,13.65661696,5
-0.106964111,6.293945313,13.67340162,5
-0.101928711,6.301574707,13.68560866,5
-0.066375732,6.30279541,13.69628981,5
-0.063018799,6.307983398,13.70697096,5
-0.034332275,6.313781738,13.71917799,5
-0.033416748,6.318359375,13.74511793,5
-0.008850098,6.318054199,13.75732496,5
-0.009002686,6.320800781,13.77105787,5
-0.009002686,6.323547363,13.78021315,5
-0.009002686,6.322937012,13.79242018,5
-0.009002686,6.323242188,13.8122566,5
-0.009002686,6.323242188,13.82751539,5
-0.009155273,6.318054199,13.84582594,5
-0.009155273,6.318054199,13.85650709,5
-0.009002686,6.312866211,13.87024,5
-0.009002686,6.30859375,13.88092116,5
-0.009002686,6.303405762,13.90380934,5
-0.009002686,6.299133301,13.91601637,5
-0.00869751,6.288757324,13.93127516,5
-0.009307861,6.279296875,13.94043043,5
-0.00869751,6.274414063,13.95568922,5
-0.009155273,6.261901855,13.97705153,5
-0.008850098,6.25,13.98773268,5
-0.008850098,6.240844727,14.00146559,5
-0.008850098,6.227416992,14.01825026,5
-0.008850098,6.215515137,14.03961256,5
0.046844482,6.201171875,14.04876783,5
0.283813477,6.188659668,14.0655525,5
0.29876709,6.177368164,14.07928541,5
0.280761719,6.162414551,14.08691481,5
0.261230469,6.147766113,14.09607008,5
0.241241455,6.132202148,14.11132887,5
0.220794678,6.115112305,14.12506178,5
0.199127197,6.099243164,14.13574293,5
0.179901123,6.083984375,14.14947584,5
0.164794922,6.069030762,14.160157,5
0.147094727,6.054992676,14.17083815,5
0.130004883,6.036071777,14.18457106,5
0.112915039,6.020812988,14.19525221,5
0.098571777,6.005554199,14.210511,5
0.086212158,5.991210938,14.22424391,5
0.077362061,5.973815918,14.23339918,5
0.067138672,5.95703125,14.24560621,5
0.059051514,5.942077637,14.25933912,5
0.048217773,5.927734375,14.27002028,5
0.039367676,5.913085938,14.28527907,5
0.035095215,5.8984375,14.2974861,5
0.030517578,5.883483887,14.30511549,5
0.02532959,5.869140625,14.32190016,5
0.022735596,5.854187012,14.33258131,5
0.023040771,5.840148926,14.34326246,5
0.020294189,5.825195313,14.35699537,5
0.017700195,5.810546875,14.36920241,5
0.012969971,5.798034668,14.37225416,5
0.009155273,5.786132813,14.38140944,5
0.008392334,5.772399902,14.39209059,5
0.00579834,5.76171875,14.40429762,5
0.003204346,5.747070313,14.41650465,5
0.003356934,5.736999512,14.41650465,5
0.001678467,5.727844238,14.42871168,5
0.000915527,5.712890625,14.44244459,5
0.000762939,5.702819824,14.44244459,5
0.000915527,5.693359375,14.45465162,5
0.000762939,5.679626465,14.46838453,5
-0.001678467,5.669250488,14.46533278,5
-0.003967285,5.659484863,14.47601393,5
0.000915527,5.649719238,14.47448805,5
0.007019043,5.639953613,14.48669508,5
0.020141602,5.627441406,14.50347975,5
0.049133301,5.617675781,14.50347975,5
0.041046143,5.606384277,14.51263502,5
0.05065918,5.598144531,14.51110914,5
0.031585693,5.58807373,14.52941969,5
-0.010986328,5.581359863,14.52789381,5
-0.03112793,5.570373535,14.53857496,5
-0.025939941,5.561523438,14.54010084,5
-0.021209717,5.551757813,14.55230787,5
-0.030975342,5.546569824,14.550782,5
-0.038452148,5.537414551,14.56451491,5
-0.035858154,5.527648926,14.56298903,5
-0.033111572,5.522766113,14.5721443,5
-0.030975342,5.513916016,14.57367018,5
-0.02822876,5.5078125,14.58435133,5
-0.023193359,5.503234863,14.58587721,5
-0.021057129,5.493164063,14.59961012,5
-0.034484863,5.489196777,14.59808424,5
-0.08972168,5.483703613,14.61334303,5
-0.059661865,5.479125977,14.61029127,5
0.198516846,5.469360352,14.62402418,5
0.898590088,5.463867188,14.62097242,5
0.89553833,5.459289551,14.64080885,5
0.11932373,5.453796387,14.63928297,5
-0.388183594,5.449523926,14.63928297,5
-0.444641113,5.444641113,14.64996412,5
-0.294647217,5.439453125,14.64996412,5
-0.155181885,5.437316895,14.66064528,5
-0.104370117,5.434875488,14.66064528,5
-0.076141357,5.429992676,14.6591194,5
-0.058898926,5.425109863,14.67285231,5
-0.044403076,5.419616699,14.67285231,5
-0.03616333,5.419921875,14.68505934,5
-0.025939941,5.415649414,14.68353346,5
-0.016479492,5.410461426,14.6881111,5
-0.006256104,5.410461426,14.69726637,5
0.00579834,5.405578613,14.69726637,5
0.015716553,5.401000977,14.70031813,5
0.029907227,5.400695801,14.7094734,5
0.039825439,5.395812988,14.70794752,5
0.049438477,5.393371582,14.71099928,5
0.062561035,5.391235352,14.72168043,5
0.077819824,5.385742188,14.72168043,5
0.095825195,5.381164551,14.72473219,5
0.116729736,5.371704102,14.73541334,5
0.139923096,5.366516113,14.73388746,5
0.156860352,5.355834961,14.7460945,5
0.164642334,5.347290039,14.7460945,5
0.164489746,5.337524414,14.7460945,5
0.136260986,5.327453613,14.75830153,5
0.069122314,5.313110352,14.75677565,5
-0.016021729,5.302734375,14.77203444,5
-0.100097656,5.290222168,14.77203444,5
-0.161437988,5.278015137,14.78271559,5
-0.193786621,5.264892578,14.78576735,5
-0.206756592,5.254516602,14.79797438,5
-0.209503174,5.239868164,14.7964485,5
-0.198516846,5.230102539,14.79492262,5
-0.180206299,5.215759277,14.80865553,5
-0.163269043,5.204772949,14.80712965,5
-0.146026611,5.190734863,14.80712965,5
-0.128936768,5.18157959,14.82238844,5
-0.119018555,5.166625977,14.81933668,5
-0.105285645,5.156555176,14.82086256,5
-0.090637207,5.146789551,14.82086256,5
-0.075378418,5.137329102,14.83154371,5
-0.062713623,5.127258301,14.83154371,5
-0.053253174,5.117797852,14.83306959,5
-0.046844482,5.108032227,14.83154371,5
-0.040893555,5.097961426,14.83154371,5
-0.035705566,5.093078613,14.83154371,5
-0.030975342,5.08392334,14.83001783,5
-0.026245117,5.079040527,14.83154371,5
-0.026092529,5.074157715,14.83306959,5
-0.026092529,5.06652832,14.8468025,5
-0.023651123,5.06072998,14.84832838,5
-0.023651123,5.057067871,14.84527662,5
-0.023803711,5.054626465,14.84527662,5
-0.020904541,5.050354004,14.8468025,5
-0.01739502,5.045471191,14.84527662,5
-0.013885498,5.044555664,14.84375075,5
-0.011444092,5.039978027,14.84527662,5
-0.010070801,5.040283203,14.84527662,5
-0.009002686,5.040588379,14.84375075,5
-0.008850098,5.035400391,14.84527662,5
-0.006561279,5.035095215,14.84527662,5
-0.003967285,5.035400391,14.8468025,5
-0.001678467,5.035400391,14.8468025,5
-0.001678467,5.040283203,14.84375075,5
-0.001373291,5.039978027,14.8468025,5
0.003509521,5.040283203,14.84527662,5
0.003356934,5.044555664,14.84527662,5
0.003204346,5.045166016,14.84527662,5
0.003356934,5.045471191,14.85138014,5
0.00579834,5.05065918,14.8468025,5
0.00793457,5.052185059,14.84527662,5
0.003509521,5.054931641,14.84527662,5
0.005645752,5.059509277,14.83154371,5
0.008392334,5.059204102,14.83001783,5
0.013275146,5.065002441,14.83154371,5
0.015258789,5.069274902,14.83154371,5
0.013122559,5.069580078,14.83154371,5
0.015563965,5.074157715,14.83306959,5
0.013122559,5.079040527,14.83306959,5
0.015563965,5.083618164,14.83306959,5
0.015411377,5.083618164,14.83612135,5
0.02166748,5.088806152,14.83154371,5
0.03616333,5.093688965,14.83306959,5
0.06362915,5.098571777,14.82238844,5
0.05065918,5.10345459,14.82238844,5
0.056762695,5.108642578,14.81628492,5
0.043487549,5.113220215,14.81933668,5
0.001373291,5.118103027,14.81933668,5
-0.020294189,5.121765137,14.82238844,5
-0.013885498,5.127563477,14.81018141,5
-0.006408691,5.132751465,14.80712965,5
-0.01739502,5.137634277,14.80712965,5
-0.023498535,5.142211914,14.81018141,5
-0.021057129,5.147094727,14.80865553,5
-0.018463135,5.151672363,14.79797438,5
-0.016174316,5.157165527,14.79492262,5
-0.016326904,5.161132813,14.79492262,5
-0.012512207,5.166625977,14.7964485,5
-0.009307861,5.175170898,14.79187086,5
-0.019989014,5.181274414,14.78576735,5
-0.076293945,5.186157227,14.77966383,5
-0.04699707,5.191040039,14.78118971,5
0.218811035,5.200805664,14.78424147,5
0.940856934,5.206298828,14.77203444,5
0.847625732,5.210571289,14.77203444,5
0.102081299,5.220336914,14.77203444,5
-0.373535156,5.225524902,14.77050856,5
-0.441131592,5.234069824,14.77356032,5
-0.325469971,5.242614746,14.75830153,5
-0.152587891,5.249328613,14.76135328,5
-0.10055542,5.258483887,14.75982741,5
-0.071258545,5.267028809,14.75677565,5
-0.057830811,5.274047852,14.75677565,5
-0.045776367,5.282592773,14.7460945,5
-0.033416748,5.29296875,14.74762037,5
-0.024108887,5.302734375,14.74914625,5
-0.013580322,5.313110352,14.74762037,5
-0.003051758,5.322265625,14.74762037,5
0.003356934,5.332336426,14.73236158,5
0.013122559,5.346069336,14.73388746,5
0.02243042,5.356750488,14.73541334,5
0.032653809,5.366821289,14.73083571,5
0.039978027,5.381164551,14.73388746,5
0.049438477,5.391235352,14.71862867,5
0.068817139,5.404663086,14.72168043,5
0.088653564,5.415649414,14.72320631,5
0.115203857,5.4296875,14.72625807,5
0.134887695,5.442199707,14.71252516,5
0.144805908,5.454101563,14.71099928,5
0.151824951,5.46875,14.70336989,5
0.149688721,5.478820801,14.70794752,5
0.116729736,5.493164063,14.69726637,5
0.050811768,5.502929688,14.69726637,5
-0.026855469,5.518188477,14.69421461,5
-0.077362061,5.532226563,14.68353346,5
-0.132141113,5.542297363,14.68658522,5
-0.167694092,5.557556152,14.68505934,5
-0.180206299,5.571289063,14.68353346,5
-0.182800293,5.586547852,14.67285231,5
-0.175323486,5.600280762,14.67437819,5
-0.165710449,5.615234375,14.67285231,5
-0.148925781,5.629272461,14.66217116,5
-0.133514404,5.643920898,14.6591194,5
-0.116729736,5.659179688,14.66064528,5
-0.09979248,5.674133301,14.65759352,5
-0.089569092,5.688476563,14.64996412,5
-0.079956055,5.703735352,14.64843825,5
-0.069732666,5.72052002,14.65149,5
-0.057830811,5.737304688,14.63775709,5
-0.051116943,5.751953125,14.63623121,5
-0.043182373,5.770263672,14.63775709,5
-0.038452148,5.786437988,14.62555006,5
-0.033569336,5.804443359,14.6224983,5
-0.030822754,5.820617676,14.61181715,5
-0.023345947,5.840454102,14.61334303,5
-0.021362305,5.854797363,14.59808424,5
-0.019073486,5.874023438,14.59961012,5
-0.014038086,5.891113281,14.601136,5
-0.016326904,5.907592773,14.58892897,5
-0.018615723,5.926208496,14.58740309,5
-0.019836426,5.942077637,14.57672194,5
-0.018310547,5.960388184,14.57519606,5
-0.016174316,5.977172852,14.56604078,5
-0.016479492,5.995483398,14.56298903,5
-0.013580322,6.010742188,14.56146315,5
-0.013885498,6.028137207,14.54925612,5
-0.009002686,6.045227051,14.54925612,5
-0.008850098,6.058349609,14.55383375,5
-0.004119873,6.076049805,14.53857496,5
-0.004119873,6.092834473,14.54010084,5
-0.001525879,6.108703613,14.52484205,5
-0.001831055,6.123352051,14.52789381,5
-0.001525879,6.137084961,14.52331617,5
-0.001678467,6.151733398,14.51568678,5
0.003204346,6.166687012,14.51568678,5
0.005645752,6.181945801,14.51263502,5
0.003356934,6.195068359,14.50500563,5
0.005187988,6.210021973,14.50500563,5
0.00793457,6.221008301,14.48974684,5
0.008239746,6.235351563,14.49127272,5
0.017852783,6.25,14.48974684,5
0.027923584,6.263427734,14.47601393,5
0.047149658,6.273498535,14.47753981,5
0.042266846,6.288757324,14.47753981,5
0.05569458,6.303405762,14.46228102,5
0.045928955,6.313476563,14.46533278,5
0.004272461,6.326904297,14.46685866,5
-0.01373291,6.337280273,14.45159987,5
-0.009155273,6.352539063,14.45465162,5
0.001068115,6.361694336,14.45465162,5
-0.010070801,6.375732422,14.43786696,5
-0.014038086,6.387023926,14.44397047,5
-0.016021729,6.395568848,14.44244459,5
-0.009002686,6.40838623,14.43176344,5
-0.006408691,6.41998291,14.43023756,5
-0.006408691,6.430664063,14.42871168,5
-0.000610352,6.440124512,14.41650465,5
0.000762939,6.450195313,14.41497877,5
-0.001525879,6.45904541,14.41497877,5
-0.06149292,6.468811035,14.40429762,5
-0.054473877,6.479187012,14.40277174,5
0.111846924,6.488037109,14.40124586,5
0.674285889,6.492919922,14.39056471,5
0.978240967,6.503295898,14.39361647,5
0.388031006,6.513061523,14.39514235,5
-0.164794922,6.517944336,14.38140944,5
-0.424346924,6.527404785,14.38293532,5
-0.367889404,6.533203125,14.37988356,5
-0.203857422,6.543273926,14.36767653,5
-0.113220215,6.547851563,14.37072828,5
-0.081176758,6.555480957,14.36920241,5
-0.05645752,6.561889648,14.35699537,5
-0.040893555,6.567382813,14.3554695,5
-0.028839111,6.571960449,14.35699537,5
-0.019836426,6.578979492,14.34021071,5
-0.008850098,6.585998535,14.34478834,5
-0.001831055,6.590881348,14.34478834,5
0.00579834,6.596374512,14.33105543,5
0.015411377,6.600952148,14.33410719,5
0.023193359,6.605224609,14.31732252,5
0.032501221,6.606445313,14.32190016,5
0.039520264,6.610717773,14.32190016,5
0.048065186,6.61529541,14.30816725,5
0.063934326,6.616210938,14.30664137,5
0.084991455,6.620483398,14.29596022,5
0.105743408,6.620483398,14.2974861,5
0.126495361,6.620483398,14.29290846,5
0.14251709,6.620178223,14.28070143,5
0.151672363,6.620483398,14.28070143,5
0.155792236,6.620178223,14.28680494,5
0.141448975,6.620788574,14.27154616,5
0.09475708,6.621398926,14.27002028,5
0.023193359,6.615600586,14.27307203,5
-0.051574707,6.615600586,14.27154616,5
-0.110168457,6.611022949,14.260865,5
-0.153808594,6.610412598,14.25933912,5
-0.174865723,6.606140137,14.25933912,5
-0.180206299,6.601257324,14.24865797,5
-0.172729492,6.595458984,14.24560621,5
-0.158233643,6.590881348,14.24713209,5
-0.143585205,6.586303711,14.23797682,5
-0.13092041,6.581420898,14.23339918,5
-0.11138916,6.576538086,14.23645094,5
-0.097045898,6.572265625,14.23797682,5
-0.082550049,6.566772461,14.22271803,5
-0.067596436,6.558227539,14.21966627,5
-0.057983398,6.552124023,14.21966627,5
-0.048065186,6.547851563,14.21203688,5
-0.041809082,6.536865234,14.20898512,5
-0.036010742,6.532897949,14.210511,5
-0.028533936,6.523742676,14.19830397,5
-0.030517578,6.518554688,14.19982985,5
-0.028533936,6.507873535,14.19677809,5
-0.023956299,6.498718262,14.18609694,5
-0.018920898,6.493530273,14.18609694,5
-0.018768311,6.483764648,14.18457106,5
-0.018463135,6.474609375,14.18762282,5
-0.018768311,6.464233398,14.17388991,5
-0.018920898,6.454467773,14.17388991,5
-0.016479492,6.445007324,14.17083815,5
-0.016326904,6.434631348,14.16320875,5
-0.01373291,6.42578125,14.160157,5
-0.014038086,6.415710449,14.160157,5
-0.009002686,6.40625,14.160157,5
-0.006256104,6.396179199,14.14642408,5
-0.003967285,6.386108398,14.14642408,5
0.001068115,6.371765137,14.14642408,5
0.000915527,6.362915039,14.14642408,5
0.004730225,6.351928711,14.13269117,5
0.005950928,6.337280273,14.13421705,5
0.00579834,6.327819824,14.13421705,5
0.00579834,6.313781738,14.12048414,5
0.008087158,6.303710938,14.12048414,5
0.008087158,6.2890625,14.12506178,5
0.008087158,6.276855469,14.1235359,5
0.009155273,6.264038086,14.11285475,5
0.008392334,6.250305176,14.10675123,5
0.00579834,6.237792969,14.11438063,5
0.008087158,6.225891113,14.09759596,5
0.008087158,6.211547852,14.09912184,5
0.008087158,6.198120117,14.10064772,5
0.008392334,6.185913086,14.09759596,5
0.010223389,6.171875,14.08691481,5
0.015869141,6.157836914,14.08691481,5
0.02746582,6.147155762,14.08538893,5
0.056762695,6.133422852,14.07470778,5
0.050811768,6.117858887,14.07623366,5
0.059204102,6.104125977,14.07623366,5
0.045776367,6.091003418,14.06402662,5
-0.000305176,6.078186035,14.06250075,5
-0.018615723,6.064453125,14.06097487,5
-0.016479492,6.049804688,14.06402662,5
-0.01373291,6.034545898,14.05029371,5
-0.021209717,6.02142334,14.05334547,5
-0.027160645,6.006164551,14.05181959,5
-0.023803711,5.99395752,14.03961256,5
-0.018768311,5.981140137,14.03961256,5
-0.01663208,5.967102051,14.04266432,5
-0.013427734,5.952148438,14.03808668,5
-0.009002686,5.9375,14.02435377,5
-0.006561279,5.923461914,14.02893141,5
-0.015716553,5.913085938,14.02740553,5
-0.069885254,5.8984375,14.0151985,5
-0.038299561,5.884094238,14.01062086,5
0.212249756,5.874023438,14.01825026,5
0.887298584,5.859680176,13.99993971,5
0.899963379,5.849914551,13.99993971,5
0.133514404,5.834960938,13.99841383,5
-0.374603271,5.825500488,13.99078444,5
-0.440979004,5.815429688,13.98925856,5
-0.290679932,5.80078125,13.98773268,5
-0.160980225,5.791015625,13.97552565,5
-0.098419189,5.78125,13.97857741,5
-0.07019043,5.76965332,13.97705153,5
-0.051879883,5.757141113,13.9648445,5
-0.040740967,5.747070313,13.96331862,5
-0.030670166,5.736999512,13.9648445,5
-0.020904541,5.728149414,13.95263746,5
-0.010223389,5.718383789,13.95416334,5
0.000457764,5.708007813,13.95263746,5
0.009307861,5.695495605,13.95416334,5
0.020294189,5.684509277,13.94043043,5
0.029602051,5.674743652,13.94195631,5
0.037689209,5.664978027,13.94195631,5
0.049438477,5.654907227,13.94348219,5
0.066223145,5.64453125,13.92974928,5
0.083770752,5.635375977,13.9282234,5
0.102081299,5.623168945,13.92974928,5
0.126495361,5.609741211,13.9282234,5
0.146942139,5.600585938,13.91906813,5
0.161895752,5.5859375,13.91601637,5
0.172729492,5.571594238,13.91449049,5
0.167999268,5.559692383,13.91754225,5
0.141296387,5.547485352,13.90533522,5
0.082855225,5.532836914,13.90075758,5
-0.003662109,5.517578125,13.8992317,5
-0.088195801,5.502929688,13.90380934,5
-0.152587891,5.48828125,13.89465407,5
-0.194549561,5.473632813,13.89312819,5
-0.215606689,5.459899902,13.89007643,5
-0.216827393,5.443725586,13.89160231,5
-0.20980835,5.430908203,13.88092116,5
-0.197601318,5.415344238,13.87939528,5
-0.180358887,5.400390625,13.8778694,5
-0.163269043,5.386047363,13.88092116,5
-0.14831543,5.372009277,13.86413649,5
-0.131378174,5.361328125,13.86413649,5
-0.11428833,5.346679688,13.86566237,5
-0.095825195,5.334777832,13.87024,5
-0.08026123,5.322570801,13.85498121,5
-0.07019043,5.3125,13.85650709,5
-0.060424805,5.299072266,13.85955885,5
-0.048065186,5.288391113,13.85650709,5
-0.040740967,5.278320313,13.84277418,5
-0.035705566,5.269470215,13.8412483,5
-0.030670166,5.258789063,13.84430006,5
-0.03112793,5.251464844,13.84277418,5
-0.025939941,5.244445801,13.82751539,5
-0.023193359,5.235290527,13.83209303,5
-0.022125244,5.230102539,13.83209303,5
-0.021209717,5.225524902,13.83056715,5
-0.023651123,5.217590332,13.81836012,5
-0.021362305,5.210266113,13.81683424,5
-0.018310547,5.205993652,13.81836012,5
-0.016326904,5.201721191,13.81836012,5
-0.016174316,5.200805664,13.81683424,5
-0.013580322,5.195617676,13.80767897,5
-0.011444092,5.190734863,13.80767897,5
-0.011291504,5.190429688,13.80615309,5
-0.009307861,5.185852051,13.80767897,5
-0.006713867,5.185852051,13.79394606,5
-0.004119873,5.180664063,13.79547194,5
-0.001525879,5.181274414,13.79394606,5
-0.004119873,5.18157959,13.79547194,5
-0.002593994,5.177001953,13.78173903,5
0.001068115,5.17578125,13.78021315,5
0.003509521,5.176391602,13.78021315,5
0.003356934,5.176696777,13.78326491,5
0.003509521,5.176086426,13.78021315,5
0.005645752,5.176086426,13.76800612,5
0.008239746,5.176696777,13.76648024,5
0.008239746,5.176086426,13.77105787,5
0.010681152,5.176086426,13.769532,5
0.010681152,5.176391602,13.75427321,5
0.010528564,5.180664063,13.75732496,5
0.010528564,5.18157959,13.75732496,5
0.012817383,5.181274414,13.75427321,5
0.013122559,5.180969238,13.75885084,5
0.015716553,5.181274414,13.74816969,5
0.015411377,5.185852051,13.7405403,5
0.013122559,5.186157227,13.74511793,5
0.012969971,5.186157227,13.74511793,5
0.012969971,5.190734863,13.7329109,5
0.010681152,5.190429688,13.73138502,5
0.010681152,5.191345215,13.73443678,5
0.014190674,5.195922852,13.7329109,5
0.025024414,5.196228027,13.7329109,5
0.053253174,5.195617676,13.72070387,5
0.054168701,5.200500488,13.72070387,5
0.049285889,5.200805664,13.71917799,5
0.054473877,5.200500488,13.72375563,5
0.010986328,5.205383301,13.70544508,5
-0.01373291,5.205383301,13.71002272,5
-0.018920898,5.205688477,13.70849684,5
-0.008850098,5.210266113,13.70697096,5
-0.013580322,5.210571289,13.69781569,5
-0.021057129,5.210571289,13.69628981,5
-0.023956299,5.215148926,13.69628981,5
-0.018768311,5.215454102,13.68560866,5
-0.016326904,5.215148926,13.68408278,5
-0.013885498,5.220336914,13.6825569,5
-0.010070801,5.219726563,13.68408278,5
-0.006408691,5.220336914,13.67187575,5
-0.006408691,5.225219727,13.67187575,5
-0.057830811,5.224914551,13.66729811,5
-0.071258545,5.225830078,13.67034987,5
0.084838867,5.225219727,13.67187575,5
0.644683838,5.230712891,13.65966871,5
1.084289551,5.229492188,13.65966871,5
0.378112793,5.230102539,13.65814283,5
-0.263061523,5.229492188,13.65966871,5
-0.454101563,5.234680176,13.66119459,5
-0.346374512,5.234985352,13.64898756,5
-0.183410645,5.234985352,13.65051344,5
-0.110931396,5.237121582,13.64898756,5
-0.079956055,5.24017334,13.65051344,5
-0.060882568,5.239868164,13.64746168,5
-0.046691895,5.24017334,13.63220289,5
-0.036010742,5.245056152,13.63372877,5
-0.025939941,5.244750977,13.63678053,5
-0.014038086,5.244750977,13.63678053,5
-0.001220703,5.249633789,13.63678053,5
0.01449585,5.249328613,13.62304762,5
0.022888184,5.254211426,13.62152174,5
0.027313232,5.254211426,13.6245735,5
0.032653809,5.259399414,13.62304762,5
0.043487549,5.26184082,13.62304762,5
0.054168701,5.263671875,13.62609938,5
0.071258545,5.268859863,13.61389235,5
0.090942383,5.269165039,13.61389235,5
0.112915039,5.274047852,13.60931471,5
0.140075684,5.278930664,13.61236647,5
0.154571533,5.278930664,13.60931471,5
0.163269043,5.283508301,13.61084059,5
0.168914795,5.288391113,13.60168532,5
0.153503418,5.288391113,13.60015944,5
0.102081299,5.293273926,13.59710768,5
0.023498535,5.297851563,13.59863356,5
-0.063323975,5.298156738,13.59863356,5
-0.134735107,5.303344727,13.58642653,5
-0.177764893,5.308227539,13.58947828,5
-0.20904541,5.307617188,13.58795241,5
-0.214233398,5.3125,13.58642653,5
-0.207366943,5.31829834,13.58795241,5
-0.197143555,5.322875977,13.57574537,5
-0.178070068,5.327758789,13.57879713,5
-0.157928467,5.331420898,13.5742195,5
-0.139923096,5.337524414,13.5742195,5
-0.123901367,5.342102051,13.57574537,5
-0.109405518,5.347595215,13.5742195,5
-0.097503662,5.352478027,13.56353834,5
-0.082092285,5.357055664,13.56506422,5
-0.072479248,5.366210938,13.56201246,5
-0.057983398,5.371704102,13.56201246,5
-0.055541992,5.376586914,13.56353834,5
-0.048065186,5.386352539,13.54827955,5
-0.038452148,5.390625,13.54827955,5
-0.033416748,5.401000977,13.55285719,5
-0.028686523,5.41015625,13.54675367,5
-0.026092529,5.419616699,13.54980543,5
-0.018768311,5.430297852,13.55285719,5
-0.016174316,5.439758301,13.5375984,5
-0.016174316,5.452270508,13.53912428,5
-0.018615723,5.464477539,13.53607252,5
-0.016326904,5.473937988,13.5375984,5
-0.01663208,5.488586426,13.5375984,5
-0.016174316,5.502624512,13.5375984,5
-0.018768311,5.515441895,13.52539137,5
-0.01373291,5.530700684,13.52691725,5
-0.010223389,5.544433594,13.52386549,5
-0.004119873,5.56060791,13.52691725,5
-0.006561279,5.576171875,13.52539137,5
-0.004119873,5.591125488,13.52539137,5
-0.001525879,5.606079102,13.51318434,5
0.000762939,5.625305176,13.51471022,5
0.001373291,5.639953613,13.51165846,5
-0.001678467,5.65826416,13.51471022,5
0.000915527,5.673828125,13.51165846,5
0.000762939,5.693359375,13.51165846,5
0.003662109,5.710449219,13.49792555,5
0.003051758,5.728149414,13.50250319,5
0.003356934,5.747070313,13.49945143,5
0.000915527,5.766906738,13.50555494,5
0.010681152,5.785827637,13.50250319,5
0.00793457,5.803527832,13.50097731,5
0.013122559,5.823059082,13.4872444,5
0.012969971,5.840148926,13.48877028,5
0.015563965,5.859069824,13.4872444,5
0.013122559,5.87890625,13.4872444,5
0.015563965,5.898132324,13.4872444,5
0.013427734,5.91796875,13.48877028,5
0.010681152,5.9375,13.47503737,5
0.010528564,5.956420898,13.479615,5
0.015563965,5.975036621,13.479615,5
0.02746582,5.993652344,13.47656325,5
0.046081543,6.010437012,13.47656325,5
0.057830811,6.02935791,13.47503737,5
0.04699707,6.049194336,13.46893385,5
0.061645508,6.066589355,13.46740797,5
0.024414063,6.083984375,13.46740797,5
-0.006103516,6.102600098,13.46740797,5
-0.01373291,6.118164063,13.46435621,5
-0.000305176,6.135253906,13.46588209,5
-0.006408691,6.15234375,13.46740797,5
-0.017700195,6.167297363,13.45214918,5
-0.018920898,6.181335449,13.45214918,5
-0.016326904,6.199035645,13.4506233,5
-0.01373291,6.214294434,13.45367506,5
-0.006866455,6.229858398,13.45520094,5
-0.001678467,6.244506836,13.45367506,5
0.000915527,6.258544922,13.45367506,5
-0.003814697,6.273803711,13.43994215,5
-0.05355835,6.287841797,13.44146803,5
-0.06652832,6.300354004,13.44146803,5
0.066070557,6.312561035,13.43841627,5
0.567932129,6.328125,13.43994215,5
1.009063721,6.341552734,13.44146803,5
0.463867188,6.352233887,13.43536451,5
-0.105133057,6.366577148,13.43078688,5
-0.41305542,6.376342773,13.429261,5
-0.389862061,6.388549805,13.42620924,5
-0.235748291,6.401367188,13.42773512,5
-0.132598877,6.410217285,13.43078688,5
-0.090942383,6.420288086,13.43078688,5
-0.068817139,6.434631348,13.41552809,5
-0.053710938,6.444091797,13.41552809,5
-0.040740967,6.455078125,13.41857985,5
-0.031280518,6.464233398,13.41705397,5
-0.021209717,6.474609375,13.41400221,5
-0.012359619,6.483764648,13.41095045,5
-0.001831055,6.493530273,13.41552809,5
0.005645752,6.501159668,13.40179518,5
0.015563965,6.507873535,13.40484694,5
0.022583008,6.518249512,13.40637282,5
0.030059814,6.527404785,13.40179518,5
0.042114258,6.532287598,13.38653639,5
0.056915283,6.542663574,13.39111403,5
0.071411133,6.547851563,13.39263991,5
0.090484619,6.557617188,13.39111403,5
0.110473633,6.562194824,13.38958815,5
0.127716064,6.566772461,13.378907,5
0.13885498,6.57623291,13.37738112,5
0.144958496,6.581115723,13.38348463,5
0.140991211,6.586303711,13.38195875,5
0.10925293,6.591186523,13.37585524,5
0.049133301,6.595458984,13.36364821,5
-0.02456665,6.597900391,13.36517408,5
-0.085754395,6.601867676,13.36822584,5
-0.134735107,6.606140137,13.36669996,5
-0.162963867,6.610412598,13.36517408,5
-0.174102783,6.610717773,13.36822584,5
-0.170288086,6.616516113,13.36517408,5
-0.159301758,6.61529541,13.35144117,5
-0.146179199,6.619873047,13.35296705,5
-0.133666992,6.620178223,13.3499153,5
-0.119171143,6.625671387,13.35296705,5
-0.099639893,6.625061035,13.35754469,5
-0.084686279,6.625366211,13.35449293,5
-0.073699951,6.629638672,13.35449293,5
-0.061645508,6.630859375,13.35296705,5
-0.05279541,6.630249023,13.33923414,5
-0.045776367,6.631164551,13.33923414,5
-0.040893555,6.629943848,13.34076002,5
-0.036010742,6.629943848,13.34076002,5
-0.033111572,6.629943848,13.3422859,5
-0.028381348,6.635131836,13.34076002,5
-0.021057129,6.63482666,13.34076002,5
-0.023803711,6.635437012,13.34076002,5
-0.021514893,6.635131836,13.33160475,5
-0.018768311,6.63482666,13.33160475,5
-0.016021729,6.63482666,13.33007887,5
-0.01373291,6.635437012,13.33313063,5
-0.01373291,6.630554199,13.33160475,5
-0.013885498,6.630249023,13.32855299,5
-0.011444092,6.630554199,13.33007887,5
-0.008850098,6.631164551,13.32855299,5
-0.006408691,6.629943848,13.31634596,5
-0.003967285,6.630249023,13.3209236,5
-0.004119873,6.629943848,13.31787184,5
-0.006103516,6.629638672,13.31634596,5
-0.003662109,6.630249023,13.31787184,5
-0.001373291,6.625366211,13.31939772,5
0.000610352,6.625976563,13.31634596,5
0.000762939,6.625366211,13.30566481,5
0.000762939,6.625366211,13.30719069,5
0.000915527,6.625061035,13.30871657,5
0.003356934,6.62109375,13.30719069,5
0.008239746,6.62109375,13.30719069,5
0.008239746,6.620483398,13.30566481,5
0.009460449,6.620788574,13.30566481,5
0.010528564,6.615905762,13.30413893,5
0.010681152,6.616210938,13.30413893,5
0.010681152,6.61529541,13.29498366,5
0.012969971,6.611022949,13.2919319,5
0.014343262,6.611328125,13.29345778,5
0.020446777,6.610717773,13.29345778,5
0.03616333,6.610717773,13.29498366,5
0.061187744,6.605834961,13.29345778,5
0.049591064,6.605834961,13.29498366,5
0.063018799,6.602172852,13.29345778,5
0.039825439,6.6015625,13.27819899,5
-0.001525879,6.600646973,13.28125075,5
-0.016326904,6.596069336,13.28277662,5
-0.008087158,6.596069336,13.2843025,5
-0.006408691,6.596679688,13.2843025,5
-0.016326904,6.591186523,13.2843025,5
-0.018310547,6.591186523,13.28277662,5
-0.016021729,6.585998535,13.27972487,5
-0.011291504,6.587219238,13.26751783,5
-0.009307861,6.581115723,13.26904371,5
-0.006561279,6.581115723,13.26751783,5
-0.001525879,6.575927734,13.26904371,5
0.000762939,6.576538086,13.27056959,5
-0.007629395,6.571960449,13.26904371,5
-0.065155029,6.569824219,13.26904371,5
-0.048065186,6.567077637,13.26751783,5
0.167999268,6.561584473,13.26141432,5
0.808258057,6.561584473,13.25836256,5
0.941162109,6.55670166,13.25836256,5
0.225524902,6.551818848,13.2553108,5
-0.3074646,6.548156738,13.25378492,5
-0.444488525,6.547851563,13.25683668,5
-0.324401855,6.542358398,13.25683668,5
-0.168304443,6.537780762,13.25988844,5
-0.10345459,6.537475586,13.25683668,5
-0.077819824,6.533203125,13.24615553,5
-0.055541992,6.527709961,13.24768141,5
-0.042114258,6.528320313,13.24615553,5
-0.026092529,6.522827148,13.24310377,5
-0.016326904,6.523132324,13.24615553,5
-0.008850098,6.518554688,13.24310377,5
0.003356934,6.517944336,13.24768141,5
0.013122559,6.513671875,13.24462965,5
0.023040771,6.513366699,13.24310377,5
0.035247803,6.512756348,13.2339485,5
0.044708252,6.508789063,13.22937086,5
0.054626465,6.508178711,13.2339485,5
0.069122314,6.503601074,13.23089674,5
0.08605957,6.503295898,13.23089674,5
0.107727051,6.50390625,13.23242262,5
0.131378174,6.49810791,13.23547438,5
0.153656006,6.498413086,13.23242262,5
0.166625977,6.492614746,13.2339485,5
0.171813965,6.492919922,13.22021559,5
0.172729492,6.489562988,13.22174147,5
0.146179199,6.488342285,13.22021559,5
0.08392334,6.484375,13.22021559,5
-0.001220703,6.479187012,13.22021559,5
-0.084228516,6.474609375,13.21868971,5
-0.149536133,6.474609375,13.22021559,5
-0.192260742,6.468505859,13.21868971,5
-0.213775635,6.464538574,13.21868971,5
-0.21697998,6.457214355,13.20953444,5
-0.21194458,6.449890137,13.20800856,5
-0.195007324,6.444091797,13.20800856,5
-0.185089111,6.43951416,13.20953444,5
-0.159759521,6.434936523,13.2049568,5
-0.139923096,6.424865723,13.20953444,5
-0.124969482,6.420288086,13.20648268,5
-0.104370117,6.411132813,13.20800856,5
-0.092010498,6.405944824,13.20953444,5
-0.079803467,6.396179199,13.19580153,5
-0.070648193,6.390991211,13.19580153,5
-0.058288574,6.381530762,13.19732741,5
-0.048370361,6.372070313,13.19427565,5
-0.045776367,6.366271973,13.19732741,5
-0.041809082,6.357116699,13.19427565,5
-0.036010742,6.351928711,13.19427565,5
-0.029602051,6.34185791,13.19122389,5
-0.026092529,6.337890625,13.19580153,5
-0.021514893,6.327209473,13.19274977,5
-0.018768311,6.324157715,13.1835945,5
-0.018768311,6.317749023,13.18054274,5
-0.021057129,6.313476563,13.18206862,5
-0.020904541,6.307983398,13.1835945,5
-0.016174316,6.303100586,13.18206862,5
-0.018615723,6.298217773,13.18206862,5
-0.015106201,6.293334961,13.18512037,5
-0.014038086,6.2890625,13.1835945,5
-0.011444092,6.288452148,13.18512037,5
-0.006408691,6.283569336,13.16680983,5
-0.003814697,6.280822754,13.17138746,5
-0.004272461,6.278686523,13.16986158,5
-0.001678467,6.279296875,13.17138746,5
0.001068115,6.274108887,13.17138746,5
0.003356934,6.273803711,13.17291334,5
0.003356934,6.274414063,13.17138746,5
0.005645752,6.273498535,13.17138746,5
0.008392334,6.274108887,13.16833571,5
0.008087158,6.268920898,13.17138746,5
0.008239746,6.269226074,13.16070631,5
0.008392334,6.26953125,13.15918043,5
0.008087158,6.269226074,13.15612867,5
0.010681152,6.26953125,13.15612867,5
0.01083374,6.274719238,13.16070631,5
0.010681152,6.274108887,13.16070631,5
0.012817383,6.273498535,13.16223219,5
0.013122559,6.274414063,13.16070631,5
0.012817383,6.273803711,13.16070631,5
0.015563965,6.273803711,13.1469734,5
0.015716553,6.274108887,13.14544752,5
0.015716553,6.278381348,13.1469734,5
0.018157959,6.278686523,13.14392164,5
0.016021729,6.278076172,13.1469734,5
0.015563965,6.278686523,13.14392164,5
0.013275146,6.283874512,13.1469734,5
0.015716553,6.283569336,13.14392164,5
0.024414063,6.283874512,13.1469734,5
0.040893555,6.286010742,13.14544752,5
0.071716309,6.2890625,13.14392164,5
0.056915283,6.287841797,13.13324049,5
0.066833496,6.288452148,13.13324049,5
0.046081543,6.2890625,13.13476637,5
0.00213623,6.293334961,13.13324049,5
-0.016174316,6.293640137,13.13476637,5
-0.009155273,6.294250488,13.13629225,5
-0.009002686,6.2890625,13.13171461,5
-0.020141602,6.288452148,13.13324049,5
-0.02822876,6.288146973,13.13476637,5
-0.028381348,6.289367676,13.12255934,5
-0.023498535,6.283569336,13.12408522,5
-0.020751953,6.283874512,13.11950758,5
-0.016021729,6.278991699,13.12408522,5
-0.011291504,6.274414063,13.12255934,5
-0.006408691,6.269836426,13.12103346,5
-0.019683838,6.26953125,13.11950758,5
-0.077514648,6.264953613,13.12103346,5
-0.034637451,6.259155273,13.12255934,5
0.235748291,6.255187988,13.12408522,5
0.925292969,6.249694824,13.10882643,5
0.851287842,6.244812012,13.11187819,5
0.053405762,6.239929199,13.11035231,5
-0.41229248,6.231079102,13.11035231,5
-0.417785645,6.225891113,13.11035231,5
-0.24887085,6.219787598,13.10882643,5
-0.12878418,6.210327148,13.11035231,5
-0.087432861,6.206054688,13.11035231,5
-0.067596436,6.196289063,13.11035231,5
-0.048370361,6.18927002,13.10730055,5
-0.038299561,6.181030273,13.10730055,5
-0.031280518,6.170654297,13.0966194,5
-0.023498535,6.162109375,13.09814528,5
-0.01159668,6.151428223,13.09814528,5
-0.000762939,6.142883301,13.09814528,5
0.010681152,6.128540039,13.09967116,5
0.019683838,6.118469238,13.0966194,5
0.030212402,6.108703613,13.08441237,5
0.042419434,6.096801758,13.08441237,5
0.056610107,6.084289551,13.08593825,5
0.071716309,6.07421875,13.08593825,5
0.089874268,6.059570313,13.08288649,5
0.110778809,6.044921875,13.08136061,5
0.13381958,6.030578613,13.07373121,5
0.154571533,6.016235352,13.06915358,5
0.17074585,6.000366211,13.07525709,5
0.18157959,5.986022949,13.07220533,5
0.179138184,5.971679688,13.07220533,5
0.148620605,5.952148438,13.07373121,5
0.082550049,5.937805176,13.07373121,5
-0.007476807,5.918579102,13.07525709,5
-0.09475708,5.899047852,13.07067946,5
-0.160675049,5.883483887,13.05847242,5
-0.199737549,5.864562988,13.06305006,5
-0.219421387,5.845031738,13.06152418,5
-0.224151611,5.826416016,13.06152418,5
-0.216674805,5.80657959,13.0599983,5
-0.2003479,5.788879395,13.06152418,5
-0.185241699,5.769042969,13.0599983,5
-0.16784668,5.749511719,13.0599983,5
-0.150909424,5.733032227,13.06152418,5
-0.134735107,5.713500977,13.06152418,5
-0.116577148,5.693969727,13.04779127,5
-0.102081299,5.673828125,13.04626539,5
-0.082397461,5.655822754,13.04779127,5
-0.065460205,5.637512207,13.04626539,5
-0.058898926,5.620117188,13.04779127,5
-0.051879883,5.600585938,13.04779127,5
-0.043182373,5.5859375,13.04779127,5
-0.035705566,5.56640625,13.04626539,5
-0.030975342,5.552062988,13.04779127,5
-0.028381348,5.53527832,13.04931715,5
-0.030822754,5.519714355,13.04779127,5
-0.028533936,5.504150391,13.03711012,5
-0.026092529,5.489501953,13.03558424,5
-0.023651123,5.47668457,13.03253248,5
-0.018920898,5.464477539,13.03711012,5
-0.016174316,5.448913574,13.03711012,5
-0.016174316,5.439453125,13.04016188,5
-0.011444092,5.424194336,13.03711012,5
-0.00869751,5.415039063,13.038636,5
-0.01373291,5.405578613,13.03558424,5
-0.006561279,5.39642334,13.03405836,5
-0.004119873,5.386047363,13.03711012,5
-0.001373291,5.376586914,13.03711012,5
-0.001831055,5.366516113,13.02642897,5
0.000915527,5.356750488,13.02490309,5
0.005950928,5.351867676,13.02490309,5
0.008239746,5.341491699,13.02337721,5
0.005645752,5.337524414,13.02642897,5
0.000762939,5.332946777,13.02337721,5
0.002288818,5.322875977,13.02795485,5
0.005493164,5.317993164,13.02490309,5
0.005493164,5.312805176,13.02185133,5
0.005493164,5.308227539,13.02185133,5
0.005950928,5.303649902,13.02337721,5
0.005645752,5.303344727,13.02337721,5
0.00793457,5.29876709,13.02337721,5
0.008087158,5.293579102,13.01269606,5
0.008544922,5.293579102,13.01269606,5
0.008392334,5.288391113,13.0096443,5
0.012817383,5.282897949,13.01269606,5
0.012664795,5.283508301,13.01269606,5
0.012817383,5.283203125,13.01422194,5
0.015563965,5.278320313,13.00811842,5
0.015411377,5.27923584,13.0096443,5
0.012969971,5.278625488,13.01269606,5
0.010681152,5.2734375,13.01269606,5
0.008239746,5.273742676,13.01422194,5
0.010986328,5.273742676,13.01269606,5
0.008087158,5.273742676,13.00048903,5
0.014801025,5.273742676,13.00048903,5
0.028991699,5.272827148,13.00048903,5
0.060577393,5.2734375,12.99896315,5
0.056610107,5.2734375,12.99896315,5
0.06072998,5.273742676,13.00048903,5
0.052947998,5.273742676,13.00048903,5
0.004119873,5.274047852,13.00201491,5
-0.018463135,5.273742676,13.00201491,5
-0.018920898,5.272827148,13.00048903,5
-0.011138916,5.274047852,12.99896315,5
-0.019226074,5.278930664,12.988282,5
-0.025787354,5.278930664,12.988282,5
-0.023651123,5.278625488,12.98675612,5
-0.021209717,5.278625488,12.988282,5
-0.018768311,5.278320313,12.98675612,5
-0.016174316,5.283813477,12.99133375,5
-0.01373291,5.283203125,12.988282,5
-0.01373291,5.283813477,12.98980787,5
-0.021057129,5.284423828,12.98675612,5
-0.083618164,5.288085938,12.99133375,5
-0.067749023,5.289001465,12.98980787,5
0.177612305,5.288085938,12.988282,5
0.882720947,5.288391113,12.97607496,5
0.929412842,5.293273926,12.97454908,5
0.160522461,5.294189453,12.97302321,5
-0.366668701,5.294189453,12.97454908,5
-0.44342041,5.29510498,12.97454908,5
-0.296783447,5.298156738,12.97454908,5
-0.155029297,5.298461914,12.97454908,5
-0.105285645,5.298461914,12.97760084,5
-0.077819824,5.299987793,12.97760084,5
-0.060119629,5.303039551,12.97454908,5
-0.048065186,5.302734375,12.97607496,5
-0.038146973,5.303039551,12.97454908,5
-0.025939941,5.303649902,12.96081617,5
-0.017242432,5.302734375,12.96234205,5
-0.006866455,5.307922363,12.96234205,5
0.003356934,5.308227539,12.96386793,5
0.015411377,5.307922363,12.96386793,5
0.025177002,5.308532715,12.96234205,5
0.036773682,5.307617188,12.96386793,5
0.04699707,5.308837891,12.96386793,5
0.061798096,5.307312012,12.96691969,5
0.079040527,5.307922363,12.96386793,5
0.10055542,5.303039551,12.96081617,5
0.12512207,5.303344727,12.96234205,5
0.147399902,5.298156738,12.95013502,5
0.163574219,5.293273926,12.9516609,5
0.174407959,5.284423828,12.9516609,5
0.176849365,5.276184082,12.9516609,5
0.155487061,5.266723633,12.95318678,5
0.097045898,5.254211426,12.9516609,5
0.01159668,5.244445801,12.95318678,5
-0.076141357,5.230102539,12.95013502,5
-0.146331787,5.215454102,12.95013502,5
-0.192260742,5.201721191,12.95013502,5
-0.214233398,5.189208984,12.9516609,5
-0.218963623,5.174255371,12.95318678,5
-0.212097168,5.161132813,12.94250563,5
-0.197143555,5.147094727,12.94097975,5
-0.180969238,5.132141113,12.93945387,5
-0.164031982,5.119018555,12.93945387,5
-0.146942139,5.108032227,12.94250563,5
-0.126953125,5.094299316,12.94097975,5
-0.111541748,5.083618164,12.94250563,5
-0.097198486,5.074157715,12.94097975,5
-0.084991455,5.06439209,12.94097975,5
-0.072631836,5.056152344,12.94250563,5
-0.065460205,5.050048828,12.94250563,5
-0.056152344,5.044555664,12.94250563,5
-0.047912598,5.035095215,12.92572096,5
-0.043182373,5.03112793,12.9302986,5
-0.03616333,5.030212402,12.92724684,5
-0.032043457,5.025634766,12.92877272,5
-0.026092529,5.02532959,12.92724684,5
-0.026092529,5.02532959,12.92724684,5
-0.023498535,5.025634766,12.92572096,5
-0.018615723,5.02532959,12.92572096,5
-0.018615723,5.026245117,12.92877272,5
-0.014038086,5.030212402,12.9302986,5
-0.016479492,5.035400391,12.92877272,5
-0.01373291,5.039978027,12.92877272,5
-0.013885498,5.045166016,12.91351393,5
-0.011291504,5.049743652,12.91503981,5
-0.008850098,5.059204102,12.91809157,5
-0.00869751,5.068969727,12.91656569,5
-0.009002686,5.074157715,12.91809157,5
-0.006256104,5.083312988,12.91961744,5
-0.003967285,5.095825195,12.91351393,5
0.000915527,5.107727051,12.91656569,5
0.000915527,5.118103027,12.91503981,5
0.003356934,5.132446289,12.91809157,5
0.00579834,5.143737793,12.91656569,5
0.005950928,5.156555176,12.91656569,5
0.008087158,5.171508789,12.90435866,5
0.008544922,5.188293457,12.9013069,5
0.010528564,5.204772949,12.90588453,5
0.013275146,5.220031738,12.90435866,5
0.013275146,5.234985352,12.90588453,5
0.015716553,5.254211426,12.90435866,5
0.014648438,5.270385742,12.90435866,5
0.013122559,5.288696289,12.90588453,5
0.012969971,5.307617188,12.90588453,5
0.015258789,5.32623291,12.90588453,5
0.015563965,5.343933105,12.9013069,5
0.013427734,5.36315918,12.9013069,5
0.015411377,5.382995605,12.89062575,5
0.015563965,5.404052734,12.89215162,5
0.015563965,5.424499512,12.89062575,5
0.015869141,5.444641113,12.8936775,5
0.020294189,5.464477539,12.89215162,5
0.02822876,5.487670898,12.89215162,5
0.043945313,5.508117676,12.89215162,5
0.059356689,5.52734375,12.89062575,5
0.054473877,5.551147461,12.8936775,5
0.074157715,5.570983887,12.89215162,5
0.047912598,5.592956543,12.8936775,5
0.00579834,5.615539551,12.88909987,5
-0.013580322,5.634460449,12.89062575,5
-0.004119873,5.658874512,12.87841871,5
-0.010986328,5.679016113,12.87994459,5
-0.021209717,5.698242188,12.88147047,5
-0.021057129,5.719604492,12.87994459,5
-0.018768311,5.740966797,12.87994459,5
-0.01663208,5.760192871,12.88147047,5
-0.011291504,5.78125,12.87994459,5
-0.011291504,5.80078125,12.87994459,5
-0.009155273,5.821228027,12.87994459,5
-0.006256104,5.839538574,12.87841871,5
-0.048828125,5.858154297,12.87994459,5
-0.079650879,5.875244141,12.88147047,5
0.022277832,5.89263916,12.86773756,5
0.469970703,5.913391113,12.86773756,5
1.056060791,5.931091309,12.86926344,5
0.549926758,5.946350098,12.86773756,5
-0.064849854,5.965576172,12.86621168,5
-0.41229248,5.981445313,12.8646858,5
-0.407409668,5.997619629,12.86926344,5
-0.248260498,6.014709473,12.86773756,5
-0.132446289,6.02935791,12.86621168,5
-0.087127686,6.044006348,12.8646858,5
-0.062561035,6.058959961,12.87078932,5
-0.045471191,6.07421875,12.86621168,5
-0.032958984,6.084594727,12.86926344,5
-0.020751953,6.098632813,12.85247877,5
-0.011291504,6.110534668,12.85705641,5
-0.004882813,6.122436523,12.85553053,5
0.003356934,6.133117676,12.85553053,5
0.012817383,6.144714355,12.85247877,5
0.020446777,6.156311035,12.85705641,5
0.030059814,6.16607666,12.85705641,5
0.039367676,6.173400879,12.85400465,5
0.047454834,6.181640625,12.85705641,5
0.058898926,6.190490723,12.85553053,5
0.078887939,6.197814941,12.85400465,5
0.098266602,6.206359863,12.85553053,5
0.120544434,6.2109375,12.85553053,0
0.142669678,6.215820313,12.85095289,0
0.157165527,6.220092773,12.8433235,0
0.164794922,6.225585938,12.84484938,0
0.161895752,6.229553223,12.8433235,0
0.128479004,6.23046875,12.84484938,0
0.066986084,6.235656738,12.8433235,0
-0.017089844,6.235656738,12.8433235,0
-0.091400146,6.235351563,12.8433235,0
-0.145111084,6.239624023,12.84484938,0
-0.179290771,6.239929199,12.8433235,0
-0.192565918,6.235046387,12.84179762,0
-0.190124512,6.235046387,12.84179762,0
-0.180206299,6.234741211,12.84484938,0
-0.163726807,6.232910156,12.8433235,0
-0.149078369,6.23046875,12.82959059,0
-0.132446289,6.226196289,12.83264235,0
-0.113830566,6.224975586,12.83111647,0
-0.09765625,6.220703125,12.82806471,0
-0.084991455,6.215515137,12.83111647,0
-0.072784424,6.215820313,12.83111647,0
-0.062561035,6.210632324,12.82959059,0
-0.052642822,6.206359863,12.83111647,0
-0.045471191,6.201477051,12.83264235,0
-0.043334961,6.196289063,12.83111647,0
-0.038146973,6.191101074,12.83264235,0
-0.033416748,6.186218262,12.82959059,0
-0.030517578,6.180725098,12.83111647,0
-0.028533936,6.176147461,12.83111647,0
-0.025939941,6.167907715,12.81890944,0
-0.021362305,6.161499023,12.82043532,0
-0.020904541,6.157226563,12.81890944,0
-0.018615723,6.152954102,12.82043532,0
-0.018920898,6.147460938,12.82196119,0
-0.016174316,6.140441895,12.81738356,0
-0.01373291,6.132202148,12.82196119,0
-0.011291504,6.127929688,12.81890944,0
-0.009002686,6.123352051,12.8143318,0
-0.006408691,6.118164063,12.81890944,0
-0.001983643,6.111755371,12.81890944,0
-0.001373291,6.103515625,12.81585768,0
0.000762939,6.098327637,12.82043532,0
0.000762939,6.093444824,12.81738356,0
0.000762939,6.088562012,12.80670241,0
0.000610352,6.078796387,12.80670241,0
0.003356934,6.074523926,12.80670241,0
0.008239746,6.069335938,12.80670241,0
0.008239746,6.059265137,12.80365065,0
0.008087158,6.054992676,12.80212477,0
0.008239746,6.047363281,12.80517653,0
0.010681152,6.039733887,12.80975416,0
0.010681152,6.030578613,12.80517653,0
0.01083374,6.025085449,12.80670241,0
0.010528564,6.015625,12.80822828,0
0.00793457,6.005859375,12.80822828,0
0.01083374,5.995788574,12.80670241,0
0.010986328,5.986938477,12.7929695,0
0.012969971,5.977783203,12.79449537,0
0.010223389,5.967712402,12.79449537,0
0.008087158,5.957336426,12.79602125,0
0.008392334,5.948181152,12.79602125,0
0.008087158,5.937805176,12.79449537,0
0.008239746,5.927734375,12.79602125,0
0.008239746,5.918273926,12.79449537,0
0.010375977,5.908203125,12.79602125,0
0.008239746,5.8984375,12.78228834,0
0.008392334,5.888977051,12.7853401,0
0.006103516,5.879821777,12.7853401,0
0.016937256,5.867919922,12.78228834,0
0.046386719,5.85723877,12.78076246,0
0.059204102,5.84564209,12.78228834,0
0.055847168,5.835876465,12.78381422,0
0.071716309,5.825195313,12.78381422,0
0.028381348,5.815734863,12.77008131,0
-0.003509521,5.80657959,12.76855543,0
-0.015869141,5.796508789,12.77160719,0
-0.011444092,5.78704834,12.77008131,0
-0.018768311,5.779724121,12.77160719,0
-0.02822876,5.769348145,12.77008131,0
-0.02822876,5.762023926,12.77008131,0
-0.023498535,5.751342773,12.77160719,0
-0.021057129,5.742492676,12.76550367,0
-0.018768311,5.732421875,12.76550367,0
-0.016174316,5.722961426,12.76855543,0
-0.013885498,5.712890625,12.77160719,0
-0.013275146,5.703735352,12.76702955,0
-0.062103271,5.697937012,12.75482252,0
-0.077209473,5.688171387,12.7563484,0
0.077972412,5.678710938,12.7563484,0
0.627593994,5.670471191,12.75940016,0
1.087646484,5.663452148,12.75787428,0
0.103149414,5.654296875,12.75940016,0
-0.358123779,5.649414063,12.75940016,0
-0.452728271,5.639343262,12.7563484,0
-0.316467285,5.634765625,12.75482252,0
-0.16418457,5.625305176,12.7563484,0
-0.104522705,5.620422363,12.75787428,0
-0.076904297,5.610961914,12.7563484,0
-0.058441162,5.605163574,12.75940016,0
-0.043334961,5.600585938,12.75787428,0
-0.031890869,5.591125488,12.74719313,0
-0.021057129,5.586853027,12.74261549,0
-0.011444092,5.581665039,12.74566725,0
-0.001373291,5.576171875,12.74566725,0
0.01083374,5.571289063,12.74414137,0
0.020446777,5.566711426,12.74719313,0
0.029449463,5.561828613,12.74566725,0
0.039367676,5.557250977,12.74414137,0
0.051269531,5.552368164,12.74566725,0
0.065917969,5.547485352,12.74719313,0
0.081481934,5.539855957,12.74566725,0
0.10269165,5.532531738,12.74414137,0
0.125274658,5.527954102,12.74719313,0
0.147857666,5.517578125,12.74871901,0
0.164337158,5.509033203,12.74566725,0
0.171966553,5.499572754,12.74719313,0
0.174407959,5.488586426,12.73193434,0
0.152130127,5.478820801,12.73346022,0
0.093994141,5.469360352,12.73346022,0
0.01159668,5.454711914,12.73346022,0
-0.076446533,5.444946289,12.7349861,0
-0.147705078,5.430297852,12.73346022,0
-0.194244385,5.416564941,12.73346022,0
-0.214691162,5.405883789,12.73346022,0
-0.221710205,5.391235352,12.73193434,0
-0.216827393,5.377197266,12.73193434,0
-0.204162598,5.366516113,12.73651198,0
-0.187530518,5.351867676,12.73193434,0
-0.16998291,5.338439941,12.73346022,0
-0.153045654,5.327453613,12.73651198,0
-0.13381958,5.3125,12.72277907,0
-0.1171875,5.303344727,12.72125319,0
-0.101165771,5.288391113,12.72125319,0
-0.087432861,5.279541016,12.71972731,0
-0.075378418,5.267028809,12.72125319,0
-0.067596436,5.254516602,12.72277907,0
-0.061035156,5.244750977,12.72277907,0
-0.055084229,5.235290527,12.72125319,0
-0.045928955,5.225524902,12.72125319,0
-0.038299561,5.215759277,12.72430494,0
-0.033569336,5.205383301,12.71972731,0
-0.030517578,5.200500488,12.72125319,0
-0.024108887,5.190734863,12.71972731,0
-0.023651123,5.182189941,12.72125319,0
-0.021209717,5.176086426,12.71972731,0
-0.018768311,5.171203613,12.70904616,0
-0.018463135,5.164489746,12.71057203,0
-0.018615723,5.156555176,12.70752028,0
-0.016021729,5.152282715,12.70904616,0
-0.01373291,5.146789551,12.70904616,0
-0.014038086,5.146789551,12.70904616,0
-0.011291504,5.142211914,12.7059944,0
-0.008544922,5.137329102,12.70904616,0
-0.004119873,5.137023926,12.71057203,0
0.000762939,5.132141113,12.70904616,0
-0.001678467,5.132141113,12.71209791,0
0.0,5.132141113,12.70752028,0
0.003051758,5.132446289,12.70752028,0
0.005645752,5.132751465,12.69683912,0
0.00793457,5.132751465,12.69683912,0
0.010681152,5.131530762,12.698365,0
0.013275146,5.132141113,12.698365,0
0.015411377,5.137329102,12.69989088,0
0.018157959,5.137023926,12.69989088,0
0.017852783,5.142822266,12.69531325,0
0.015716553,5.14251709,12.69531325,0
0.015258789,5.147399902,12.69531325,0
0.014953613,5.151672363,12.698365,0
0.013122559,5.156555176,12.69683912,0
0.01083374,5.161132813,12.69683912,0
0.010528564,5.165710449,12.69531325,0
0.012817383,5.171203613,12.69683912,0
0.015563965,5.176086426,12.69531325,0
0.013427734,5.181274414,12.698365,0
0.016021729,5.185546875,12.68615797,0
0.013427734,5.194702148,12.68463209,0
0.013122559,5.200805664,12.68615797,0
0.013122559,5.205993652,12.68310621,0
0.015411377,5.215759277,12.68615797,0
0.015258789,5.222167969,12.68615797,0
0.017700195,5.229797363,12.68310621,0
0.024871826,5.239257813,12.68158033,0
0.048370361,5.245056152,12.68310621,0
0.056304932,5.254516602,12.68310621,0
0.054321289,5.263671875,12.68463209,0
0.065917969,5.270385742,12.68463209,0
0.025787354,5.278625488,12.68310621,0
-0.006713867,5.288391113,12.68310621,0
-0.016326904,5.297851563,12.68615797,0
-0.010986328,5.308227539,12.67242506,0
-0.021209717,5.317993164,12.67089918,0
-0.028381348,5.327453613,12.6693733,0
-0.028533936,5.337524414,12.67242506,0
-0.023651123,5.346679688,12.67242506,0
-0.018920898,5.356750488,12.67395094,0
-0.01663208,5.366821289,12.67547682,0
-0.016479492,5.376281738,12.67242506,0
-0.01373291,5.388183594,12.67395094,0
-0.016479492,5.400695801,12.67242506,0
-0.07232666,5.41015625,12.67089918,0
-0.077819824,5.420227051,12.67395094,0
0.088500977,5.434570313,12.67242506,0
0.684356689,5.444335938,12.67089918,0
1.018981934,5.459289551,12.67242506,0
0.349884033,5.472412109,12.66326979,0
-0.22857666,5.485229492,12.66021803,0
-0.448760986,5.498352051,12.66021803,0
-0.365142822,5.513000488,12.66021803,0
-0.203552246,5.528259277,12.66174391,0
-0.117034912,5.544128418,12.65869215,0
-0.084533691,5.561828613,12.65869215,0
-0.065765381,5.575256348,12.66174391,0
-0.047912598,5.592956543,12.66174391,0
-0.036010742,5.610046387,12.66021803,0
-0.028533936,5.626220703,12.65869215,0
-0.020751953,5.644836426,12.66021803,0
-0.009002686,5.663146973,12.66021803,0
0.003356934,5.679016113,12.65869215,0
0.010681152,5.698242188,12.66174391,0
0.01739502,5.717773438,12.64648512,0
0.02532959,5.733947754,12.648011,0
0.037078857,5.751953125,12.65106276,0
0.044708252,5.770874023,12.64648512,0
0.05645752,5.787658691,12.64495924,0
0.073547363,5.805358887,12.648011,0
0.096435547,5.823974609,12.648011,0
0.117492676,5.839233398,12.64648512,0
0.136871338,5.858459473,12.65258864,0
0.152130127,5.872802734,12.648011,0
0.162200928,5.888671875,12.64343336,0
0.152435303,5.904541016,12.64495924,0
0.113220215,5.921936035,12.648011,0
0.041809082,5.936889648,12.64648512,0
-0.035095215,5.951538086,12.65258864,0
-0.104064941,5.96496582,12.648011,0
-0.150909424,5.979919434,12.63732985,0
-0.177612305,5.993041992,12.63732985,0
-0.187530518,6.005859375,12.63732985,0
-0.185089111,6.020507813,12.63732985,0
-0.173339844,6.035461426,12.63427809,0
-0.160064697,6.04675293,12.63427809,0
-0.14541626,6.059570313,12.63580397,0
-0.131835938,6.07421875,12.63580397,0
-0.114135742,6.083984375,12.63427809,0
-0.099945068,6.098632813,12.63427809,0
-0.084381104,6.110229492,12.63122633,0
-0.077667236,6.122741699,12.63580397,0
-0.065307617,6.134338379,12.63580397,0
-0.060424805,6.147155762,12.63732985,0
-0.048675537,6.158752441,12.63275221,0
-0.043182373,6.170959473,12.63732985,0
-0.037994385,6.181335449,12.62359694,0
-0.031585693,6.195983887,12.62359694,0
-0.025939941,6.205444336,12.62512282,0
-0.023651123,6.219482422,12.62359694,0
-0.018615723,6.229858398,12.62664869,0
-0.018615723,6.239929199,12.62359694,0
-0.021209717,6.250915527,12.62359694,0
-0.020904541,6.26373291,12.62359694,0
-0.013885498,6.273803711,12.62207106,0
-0.011444092,6.283874512,12.62054518,0
-0.011444092,6.293945313,12.62207106,0
-0.004425049,6.303405762,12.62817457,0
-0.001373291,6.313171387,12.62207106,0
-0.001678467,6.323242188,12.62359694,0
0.000915527,6.332397461,12.62207106,0
0.000915527,6.342773438,12.62512282,0
-0.001525879,6.351623535,12.61291578,0
0.002593994,6.362304688,12.61138991,0
0.00289917,6.372375488,12.60833815,0
0.005645752,6.381225586,12.61291578,0
0.005950928,6.389770508,12.60986403,0
0.005950928,6.395568848,12.61291578,0
0.00579834,6.405944824,12.61138991,0
0.005645752,6.415100098,12.60986403,0
0.008239746,6.425170898,12.61138991,0
0.008239746,6.430664063,12.60986403,0
0.010986328,6.439208984,12.61138991,0
0.009918213,6.449890137,12.61138991,0
0.008087158,6.459655762,12.60681227,0
0.008087158,6.464233398,12.61291578,0
0.008392334,6.473999023,12.61138991,0
0.013122559,6.483459473,12.597657,0
0.008239746,6.49230957,12.60223463,0
0.010375977,6.498413086,12.59613112,0
0.018463135,6.508789063,12.59613112,0
0.02822876,6.517944336,12.59918287,0
0.051116943,6.527709961,12.60070875,0
0.047912598,6.532592773,12.59613112,0
0.066680908,6.542358398,12.59918287,0
0.051422119,6.551513672,12.60223463,0
0.00793457,6.557006836,12.60223463,0
-0.015563965,6.566467285,12.60223463,0
-0.006561279,6.57623291,12.597657,0
-0.011138916,6.581420898,12.59460524,0
-0.023651123,6.591186523,12.59918287,0
-0.028686523,6.600341797,12.59918287,0
-0.019226074,6.606445313,12.59613112,0
-0.018615723,6.61529541,12.59918287,0
-0.016326904,6.620788574,12.60223463,0
-0.014038086,6.62902832,12.597657,0
-0.009002686,6.635437012,12.58544996,0
-0.011138916,6.644897461,12.58697584,0
-0.033874512,6.649780273,12.58697584,0
-0.0730896,6.656494141,12.58697584,0
0.001373291,6.664428711,12.58544996,0
0.316772461,6.669311523,12.58544996,0
0.989685059,6.67755127,12.58392408,0
0.706634521,6.683654785,12.58544996,0
0.091552734,6.688842773,12.5900276,0
-0.336303711,6.69342041,12.5900276,0
-0.422363281,6.703186035,12.58544996,0
-0.29586792,6.707763672,12.58697584,0
-0.158081055,6.71295166,12.58544996,0
-0.098876953,6.718139648,12.58392408,0
-0.072937012,6.723022461,12.58392408,0
-0.056152344,6.727905273,12.58850172,0
-0.043945313,6.734008789,12.58850172,0
-0.028533936,6.742248535,12.58544996,0
-0.021209717,6.747741699,12.57324293,0
-0.014343262,6.75201416,12.57324293,0
-0.006713867,6.757202148,12.57629469,0
0.001068115,6.761779785,12.57324293,0
0.008239746,6.766967773,12.57629469,0
0.015258789,6.772155762,12.57476881,0
0.025177002,6.776428223,12.57629469,0
0.032501221,6.781616211,12.57324293,0
0.044403076,6.786499023,12.57782057,0
0.06149292,6.790161133,12.57476881,0
0.083312988,6.791381836,12.57171705,0
0.102996826,6.796264648,12.57476881,0
0.115356445,6.801147461,12.57324293,0
0.130157471,6.805725098,12.57324293,0
0.141601563,6.806030273,12.57171705,0
0.144195557,6.810913086,12.57324293,0
0.121917725,6.814880371,12.57324293,0
0.071563721,6.815490723,12.57171705,0
-0.003509521,6.820678711,12.55798414,0
-0.065765381,6.821289063,12.5610359,0
-0.119781494,6.825256348,12.5610359,0
-0.154266357,6.825561523,12.5610359,0
-0.167999268,6.829833984,12.56256178,0
-0.170440674,6.830444336,12.56408766,0
-0.16494751,6.8359375,12.5610359,0
-0.152435303,6.834716797,12.55951002,0
-0.142822266,6.835021973,12.5610359,0
-0.123748779,6.839904785,12.56256178,0
-0.110168457,6.839904785,12.55798414,0
-0.092773438,6.845397949,12.56256178,0
-0.079345703,6.844482422,12.56256178,0
-0.070037842,6.844482422,12.56408766,0
-0.062561035,6.849975586,12.55951002,0
-0.055236816,6.850585938,12.56256178,0
-0.047912598,6.854553223,12.54882887,0
-0.043182373,6.855163574,12.55188063,0
-0.035858154,6.859741211,12.54730299,0
-0.030822754,6.859741211,12.55035475,0
-0.030517578,6.864624023,12.55035475,0
-0.02532959,6.866149902,12.54882887,0
-0.021362305,6.86920166,12.54882887,0
-0.021514893,6.874389648,12.54882887,0
-0.01373291,6.876831055,12.54882887,0
-0.021057129,6.878967285,12.55188063,0
-0.01373291,6.884155273,12.54882887,0
-0.011291504,6.888427734,12.55035475,0
-0.011138916,6.890563965,12.55035475,0
-0.01373291,6.89453125,12.54730299,0
-0.013122559,6.898803711,12.55188063,0
-0.006561279,6.903381348,12.55035475,0
-0.006408691,6.908569336,12.55188063,0
-0.006561279,6.91192627,12.55035475,0
-0.001831055,6.913452148,12.53814772,0
-0.001831055,6.918029785,12.5396736,0
0.000762939,6.922912598,12.53509596,0
0.000915527,6.927490234,12.53814772,0
0.003204346,6.932678223,12.5396736,0
0.005645752,6.936340332,12.53662184,0
0.005645752,6.937561035,12.5396736,0
0.005493164,6.942749023,12.53814772,0
0.005950928,6.947631836,12.5396736,0
0.007171631,6.952514648,12.53814772,0
0.005645752,6.957092285,12.53814772,0
0.011444092,6.959533691,12.53662184,0
0.038146973,6.962280273,12.53814772,0
0.044708252,6.967163086,12.53662184,0
0.046386719,6.972351074,12.53814772,0
0.068817139,6.976623535,12.53662184,0
0.032653809,6.98059082,12.53662184,0
-0.003509521,6.982421875,12.53814772,0
-0.018920898,6.985778809,12.53814772,0
-0.006866455,6.9921875,12.53814772,0
-0.011291504,6.996459961,12.53662184,0
-0.023803711,6.996459961,12.53509596,0
-0.021514893,7.001342773,12.53814772,0
-0.018768311,7.006225586,12.54119948,0
-0.021057129,7.010803223,12.53814772,0
-0.015869141,7.011108398,12.53662184,0
-0.006256104,7.015991211,12.53814772,0
-0.004119873,7.020568848,12.52746657,0
-0.005950928,7.020568848,12.52594069,0
-0.048675537,7.026062012,12.52441481,0
-0.04776001,7.030944824,12.52594069,0
0.080566406,7.030639648,12.52594069,0
0.537261963,7.035217285,12.52746657,0
0.994110107,7.035217285,12.52594069,0
0.45715332,7.040405273,12.52746657,0
-0.099487305,7.044372559,12.52594069,0
-0.403747559,7.044677734,12.52594069,0
-0.378112793,7.049560547,12.52441481,0
-0.229034424,7.050170898,12.52288893,0
-0.132751465,7.055358887,12.52441481,0
-0.090179443,7.055053711,12.52899244,0
-0.064239502,7.059326172,12.52441481,0
-0.050506592,7.059326172,12.52441481,0
-0.03326416,7.065124512,12.52746657,0
-0.025482178,7.068481445,12.52899244,0
-0.018768311,7.069396973,12.52441481,0
-0.006866455,7.073669434,12.51220778,0
0.003051758,7.074890137,12.51678541,0
0.010528564,7.079162598,12.51525953,0
0.015563965,7.079162598,12.51220778,0
0.025634766,7.084655762,12.51373366,0
0.034790039,7.084350586,12.51525953,0
0.046386719,7.089233398,12.51220778,0
0.057525635,7.088928223,12.51220778,0
0.073547363,7.088928223,12.51525953,0
0.091247559,7.093505859,12.51220778,0
0.111236572,7.094116211,12.51678541,0
0.127105713,7.093505859,12.51525953,0
0.135192871,7.098999023,12.51373366,0
0.139770508,7.098999023,12.51220778,0
0.135345459,7.098999023,12.51220778,0
0.10055542,7.098693848,12.51373366,0
0.039825439,7.098693848,12.5106819,0
-0.037841797,7.098999023,12.50152662,0
-0.099639893,7.099304199,12.50152662,0
-0.141906738,7.098999023,12.50000075,0
-0.167999268,7.098388672,12.50000075,0
-0.178222656,7.098693848,12.50152662,0
-0.172576904,7.099609375,12.5030525,0
-0.165863037,7.098693848,12.50000075,0
-0.1512146,7.098999023,12.50152662,0
-0.13671875,7.098388672,12.5030525,0
-0.115661621,7.098999023,12.50152662,0
-0.104827881,7.094116211,12.50000075,0
-0.088806152,7.093811035,12.5030525,0
-0.077209473,7.094421387,12.50152662,0
-0.072479248,7.093811035,12.5030525,0
-0.062255859,7.093505859,12.50152662,0
-0.055389404,7.089233398,12.50000075,0
-0.046386719,7.089233398,12.50152662,0
-0.038146973,7.088623047,12.50000075,0
-0.030975342,7.088623047,12.5030525,0
-0.028991699,7.089233398,12.50000075,0
-0.026092529,7.083740234,12.49389723,0
-0.023498535,7.08404541,12.49084547,0
-0.021057129,7.084350586,12.48779371,0
-0.016174316,7.084350586,12.48626783,0
-0.016479492,7.084655762,12.48779371,0
-0.016174316,7.079162598,12.48779371,0
-0.01159668,7.079467773,12.48779371,0
-0.011291504,7.079467773,12.48931959,0
-0.01373291,7.079162598,12.48931959,0
-0.011444092,7.079467773,12.49084547,0
-0.00793457,7.073974609,12.48626783,0
-0.006561279,7.075195313,12.48626783,0
-0.006713867,7.074890137,12.47711256,0
-0.004119873,7.075195313,12.47863844,0
-0.000762939,7.073974609,12.47711256,0
0.000610352,7.073974609,12.47711256,0
0.003356934,7.074279785,12.48016432,0
0.000915527,7.074584961,12.48016432,0
0.003356934,7.069091797,12.47558668,0
0.008239746,7.069702148,12.47558668,0
0.00579834,7.069396973,12.47558668,0
0.00793457,7.069396973,12.47558668,0
0.008239746,7.069396973,12.46490553,0
0.008087158,7.069702148,12.46490553,0
0.010375977,7.069091797,12.46337965,0
0.012512207,7.069396973,12.46490553,0
0.012969971,7.069396973,12.46490553,0
0.019989014,7.06451416,12.46643141,0
0.045471191,7.06451416,12.46185377,0
0.051879883,7.064819336,12.46795729,0
0.056152344,7.064819336,12.46643141,0
0.06439209,7.064819336,12.46490553,0
0.022735596,7.064208984,12.46490553,0
-0.008392334,7.06451416,12.46490553,0
-0.014343262,7.06451416,12.46185377,0
-0.003967285,7.059326172,12.46490553,0
-0.012207031,7.059631348,12.46643141,0
-0.023498535,7.059326172,12.46795729,0
-0.023651123,7.059936523,12.46643141,0
-0.018310547,7.059936523,12.45117262,0
-0.013885498,7.059936523,12.45117262,0
-0.009002686,7.060852051,12.44964674,0
-0.006408691,7.059326172,12.45117262,0
-0.003814697,7.059631348,12.45117262,0
-0.007476807,7.059936523,12.45575026,0
-0.054473877,7.054748535,12.45422438,0
-0.039520264,7.055664063,12.4526985,0
0.125274658,7.054748535,12.45117262,0
0.655517578,7.054748535,12.4526985,0
0.993652344,7.055053711,12.4526985,0
0.336151123,7.054443359,12.4526985,0
-0.219573975,7.055053711,12.45575026,0
-0.430297852,7.054443359,12.45422438,0
-0.345153809,7.055053711,12.45422438,0
-0.187072754,7.055053711,12.45117262,0
-0.106658936,7.055358887,12.4526985,0
-0.076599121,7.054138184,12.45117262,0
-0.054626465,7.054748535,12.4526985,0
-0.041046143,7.055053711,12.4526985,0
-0.031738281,7.054748535,12.44049147,0
-0.021209717,7.055053711,12.43896559,0
-0.009002686,7.055053711,12.43896559,0
0.000762939,7.054748535,12.43896559,0
0.010681152,7.054443359,12.44201735,0
0.017089844,7.054748535,12.43896559,0
0.02456665,7.055053711,12.43743971,0
0.037078857,7.055053711,12.44049147,0
0.046844482,7.055053711,12.44201735,0
0.06072998,7.054748535,12.44354323,0
0.078277588,7.050170898,12.44201735,0
0.098266602,7.050476074,12.44201735,0
0.117797852,7.049865723,12.44201735,0
0.139923096,7.049560547,12.44049147,0
0.157165527,7.045288086,12.44354323,0
0.168914795,7.045288086,12.44049147,0
0.166625977,7.040710449,12.44201735,0
0.148162842,7.040405273,12.43743971,0
0.096893311,7.035522461,12.43743971,0
0.018768311,7.030639648,12.44049147,0
-0.065612793,7.030639648,12.43896559,0
-0.136871338,7.025146484,12.43743971,0
-0.177612305,7.021484375,12.44201735,0
-0.202026367,7.015686035,12.44049147,0
-0.206604004,7.010803223,12.43133619,0
-0.204620361,7.006225586,12.42981032,0
-0.189666748,7.001647949,12.42828444,0
-0.172729492,6.996459961,12.42828444,0
-0.155944824,6.991577148,12.42675856,0
-0.141143799,6.98638916,12.42828444,0
-0.124816895,6.982421875,12.42828444,0
-0.10635376,6.976928711,12.42675856,0
-0.08972168,6.968688965,12.42828444,0
-0.075378418,6.962585449,12.42675856,0
-0.065155029,6.957092285,12.42828444,0
-0.055541992,6.951599121,12.42828444,0
-0.045776367,6.947631836,12.42675856,0
-0.040740967,6.940002441,12.42675856,0
-0.038299561,6.932983398,12.42981032,0
-0.031738281,6.92779541,12.42828444,0
-0.023956299,6.923522949,12.42981032,0
-0.018920898,6.918640137,12.42981032,0
-0.016174316,6.909790039,12.42828444,0
-0.018615723,6.903381348,12.42828444,0
-0.016021729,6.898803711,12.42828444,0
-0.01373291,6.893615723,12.41455153,0
-0.01373291,6.889038086,12.41455153,0
-0.01373291,6.879272461,12.41760328,0
-0.013885498,6.874389648,12.41912916,0
-0.01373291,6.86920166,12.41455153,0
-0.011291504,6.864318848,12.41607741,0
-0.006713867,6.855773926,12.41455153,0
-0.006408691,6.850280762,12.41455153,0
-0.006713867,6.845397949,12.41607741,0
-0.006561279,6.839904785,12.41455153,0
-0.004119873,6.83013916,12.41455153,0
-0.001831055,6.824951172,12.41455153,0
-0.001525879,6.820983887,12.41912916,0
0.000610352,6.810302734,12.41912916,0
0.001220703,6.805114746,12.41607741,0
0.003204346,6.800842285,12.41455153,0
0.005645752,6.790771484,12.41760328,0
0.005493164,6.786804199,12.41455153,0
0.008544922,6.776733398,12.41760328,0
0.01083374,6.77154541,12.41302565,0
0.010986328,6.761474609,12.41455153,0
0.010681152,6.7578125,12.41455153,0
0.010986328,6.747741699,12.41455153,0
0.010681152,6.739196777,12.41760328,0
0.01083374,6.732788086,12.4023445,0
0.013122559,6.723022461,12.40081862,0
0.015411377,6.713562012,12.4023445,0
0.015716553,6.704406738,12.40539625,0
0.012817383,6.694641113,12.40692213,0
0.010528564,6.685791016,12.4023445,0
0.01083374,6.676635742,12.40539625,0
0.013427734,6.665039063,12.40081862,0
0.018615723,6.654663086,12.40387037,0
0.032043457,6.645507813,12.40387037,0
0.061950684,6.635742188,12.40387037,0
0.056762695,6.625671387,12.40387037,0
0.060424805,6.61529541,12.4023445,0
0.045318604,6.602783203,12.4023445,0
0.000915527,6.590881348,12.4023445,0
-0.018768311,6.580810547,12.40387037,0
-0.011444092,6.571350098,12.40387037,0
-0.012969971,6.557617188,12.40387037,0
-0.025177002,6.547851563,12.40539625,0
-0.028533936,6.538085938,12.40081862,0
-0.028533936,6.5234375,12.4023445,0
-0.023956299,6.513671875,12.38861158,0
-0.021209717,6.498413086,12.39318922,0
-0.018920898,6.488952637,12.39318922,0
-0.01373291,6.479492188,12.39166334,0
-0.011291504,6.463623047,12.38708571,0
-0.019989014,6.455078125,12.38861158,0
-0.074157715,6.442260742,12.39166334,0
-0.033721924,6.430358887,12.39013746,0
0.213317871,6.420898438,12.38708571,0
0.876312256,6.40625,12.39166334,0
0.889129639,6.396484375,12.39166334,0
0.126190186,6.382141113,12.39013746,0
-0.372772217,6.371765137,12.39013746,0
-0.432739258,6.357727051,12.39166334,0
-0.28137207,6.346435547,12.39318922,0
-0.142669678,6.334838867,12.39166334,0
-0.090637207,6.323242188,12.39166334,0
-0.066223145,6.313171387,12.3947151,0
-0.050506592,6.299438477,12.39318922,0
-0.038909912,6.289367676,12.39013746,0
-0.028381348,6.273803711,12.39318922,0
-0.016479492,6.264038086,12.39166334,0
-0.006408691,6.251831055,12.37945631,0
0.001068115,6.239929199,12.37640455,0
0.010681152,6.229858398,12.37793043,0
0.022583008,6.220397949,12.37945631,0
0.032806396,6.20513916,12.37793043,0
0.04196167,6.195983887,12.38098219,0
0.052337646,6.183166504,12.37640455,0
0.068359375,6.171569824,12.38098219,0
0.087585449,6.157836914,12.38098219,0
0.111846924,6.146850586,12.37945631,0
0.134735107,6.133117676,12.37640455,0
0.156097412,6.118164063,12.37793043,0
0.173187256,6.103210449,12.37945631,0
0.18157959,6.089172363,12.37945631,0
0.179290771,6.074523926,12.38098219,0
0.152893066,6.05682373,12.38250807,0
0.090637207,6.039733887,12.37793043,0
0.0050354,6.025695801,12.37640455,0
-0.082855225,6.007080078,12.37793043,0
-0.169372559,5.991516113,12.38098219,0
-0.204467773,5.977172852,12.38098219,0
-0.219421387,5.958862305,12.3657234,0
-0.221557617,5.942382813,12.3657234,0
-0.215301514,5.927734375,12.36724928,0
-0.200653076,5.908813477,12.36724928,0
-0.184936523,5.892944336,12.3657234,0
-0.167999268,5.878295898,12.3657234,0
-0.151824951,5.863952637,12.36724928,0
-0.13381958,5.847473145,12.36724928,0
-0.118865967,5.832214355,12.36267164,0
-0.102844238,5.816345215,12.36724928,0
-0.087280273,5.802612305,12.36419752,0
-0.073242188,5.790710449,12.36419752,0
-0.062561035,5.776367188,12.36877516,0
-0.05065918,5.76171875,12.36267164,0
-0.043334961,5.747680664,12.36724928,0
-0.038299561,5.73638916,12.3657234,0
-0.03326416,5.72265625,12.36419752,0
-0.030975342,5.711669922,12.3657234,0
-0.026092529,5.703125,12.36877516,0
-0.018768311,5.688781738,12.36724928,0
-0.018768311,5.678710938,12.36724928,0
-0.018615723,5.668945313,12.36724928,0
-0.018615723,5.659179688,12.35351637,0
-0.016326904,5.649414063,12.35656813,0
-0.016326904,5.64453125,12.35656813,0
-0.01663208,5.634765625,12.35351637,0
-0.013885498,5.625,12.35351637,0
-0.013885498,5.620727539,12.35046461,0
-0.008850098,5.610656738,12.35504225,0
-0.006561279,5.60546875,12.35199049,0
-0.006256104,5.600891113,12.35504225,0
-0.006561279,5.590515137,12.35656813,0
-0.006103516,5.585327148,12.35656813,0
-0.003967285,5.580749512,12.35656813,0
-0.001525879,5.576477051,12.35351637,0
-0.001373291,5.570678711,12.35199049,0
0.002288818,5.566101074,12.35351637,0
0.003204346,5.561523438,12.35351637,0
0.004882813,5.556640625,12.35656813,0
0.008087158,5.556945801,12.35504225,0
0.010681152,5.552062988,12.35504225,0
0.010681152,5.547485352,12.34283522,0
0.008239746,5.547180176,12.34283522,0
0.008239746,5.542602539,12.34130934,0
0.010986328,5.541992188,12.34588698,0
0.013275146,5.537109375,12.34130934,0
0.010681152,5.537414551,12.34130934,0
0.012359619,5.532226563,12.34283522,0
0.013427734,5.532836914,12.34283522,0
0.015716553,5.527648926,12.34130934,0
0.013275146,5.52734375,12.34130934,0
0.015411377,5.528564453,12.3443611,0
0.017547607,5.521850586,12.34283522,0
0.018005371,5.522766113,12.3443611,0
0.017852783,5.517578125,12.34130934,0
0.018005371,5.518493652,12.33825758,0
0.013122559,5.517578125,12.34588698,0
0.010986328,5.51361084,12.33978346,0
0.018005371,5.513000488,12.34130934,0
0.034484863,5.512390137,12.34283522,0
0.061645508,5.513305664,12.34283522,0
0.051879883,5.508422852,12.3443611,0
0.066375732,5.508422852,12.33978346,0
0.045471191,5.5078125,12.34283522,0
0.003662109,5.5078125,12.34130934,0
-0.017700195,5.502319336,12.3443611,0
-0.012512207,5.502929688,12.33062819,0
-0.011291504,5.502624512,12.33062819,0
-0.021362305,5.503540039,12.32910231,0
-0.028533936,5.503540039,12.32910231,0
-0.026092529,5.498046875,12.32910231,0
-0.023803711,5.497741699,12.32605055,0
-0.018615723,5.498352051,12.33062819,0
-0.011749268,5.498352051,12.33215407,0
-0.011291504,5.498352051,12.32757643,0
-0.01159668,5.498352051,12.33062819,0
-0.020141602,5.493774414,12.33062819,0
-0.078735352,5.493164063,12.33062819,0
-0.048065186,5.493164063,12.32910231,0
0.212554932,5.492248535,12.33062819,0
0.913391113,5.493774414,12.33367994,0
0.884094238,5.492858887,12.32910231,0
0.093688965,5.493469238,12.33062819,0
-0.398254395,5.48828125,12.32910231,0
-0.431365967,5.487976074,12.32910231,0
-0.269470215,5.48828125,12.32757643,0
-0.142822266,5.48828125,12.32757643,0
-0.095977783,5.48828125,12.33215407,0
-0.070800781,5.487976074,12.3153694,0
-0.05279541,5.487976074,12.31384352,0
-0.041046143,5.483398438,12.31842116,0
-0.03112793,5.483703613,12.31689528,0
-0.018920898,5.484008789,12.31842116,0
-0.008850098,5.483093262,12.31689528,0
0.000762939,5.483703613,12.31689528,0
0.012969971,5.478515625,12.3153694,0
0.023040771,5.478820801,12.31994703,0
0.035247803,5.478515625,12.31689528,0
0.043640137,5.474243164,12.31689528,0
0.053710938,5.473022461,12.31384352,0
0.066833496,5.468444824,12.31994703,0
0.083618164,5.469360352,12.3153694,0
0.103149414,5.463867188,12.31842116,0
0.12512207,5.454101563,12.31842116,0
0.146636963,5.449829102,12.31842116,0
0.164642334,5.440368652,12.31842116,0
0.176696777,5.433959961,12.31384352,0
0.174713135,5.425415039,12.31689528,0
0.150756836,5.415649414,12.31994703,0
0.090332031,5.404663086,12.31842116,0
0.004882813,5.391540527,12.31842116,0
-0.080413818,5.381774902,12.3153694,0
-0.151672363,5.37109375,12.31079176,0
-0.194091797,5.358276367,12.30468825,0
-0.218811035,5.347290039,12.30621412,0
-0.221557617,5.336914063,12.30468825,0
-0.214233398,5.328063965,12.30774,0
-0.202178955,5.3125,12.30621412,0
-0.185241699,5.303039551,12.30621412,0
-0.162811279,5.29296875,12.30468825,0
-0.143585205,5.281066895,12.30468825,0
-0.128631592,5.268249512,12.30316237,0
-0.11428833,5.258789063,12.30316237,0
-0.096893311,5.249023438,12.30316237,0
-0.083007813,5.239562988,12.30316237,0
-0.070495605,5.229797363,12.30468825,0
-0.060577393,5.22064209,12.30316237,0
-0.050811768,5.210571289,12.30621412,0
-0.042877197,5.205078125,12.30621412,0
-0.033416748,5.196228027,12.30468825,0
-0.031280518,5.186157227,12.30316237,0
-0.025939941,5.181274414,12.30926588,0
-0.025939941,5.173339844,12.30468825,0
-0.021362305,5.166625977,12.29248121,0
-0.019073486,5.161437988,12.29553297,0
-0.018768311,5.156555176,12.29248121,0
-0.016326904,5.148925781,12.29400709,0
-0.016326904,5.142822266,12.28942946,0
-0.016174316,5.137023926,12.29095533,0
-0.01663208,5.137023926,12.29248121,0
-0.013427734,5.131835938,12.29400709,0
-0.01373291,5.126953125,12.29248121,0
-0.009002686,5.121765137,12.29248121,0
-0.009155273,5.122680664,12.29400709,0
-0.009002686,5.1171875,12.29095533,0
-0.006561279,5.1171875,12.29248121,0
-0.004119873,5.112915039,12.29095533,0
-0.003967285,5.112609863,12.29248121,0
-0.001678467,5.112609863,12.29400709,0
0.000762939,5.112915039,12.29400709,0
0.000915527,5.112915039,12.29248121,0
0.003051758,5.112609863,12.29400709,0
0.005950928,5.113525391,12.28942946,0
0.008239746,5.112915039,12.29553297,0
0.010375977,5.112915039,12.29248121,0
0.01083374,5.112915039,12.29095533,0
0.010375977,5.112915039,12.29553297,0
0.010681152,5.112609863,12.28180006,0
0.013122559,5.118103027,12.28027418,0
0.012969971,5.118103027,12.2787483,0
0.010528564,5.118103027,12.28027418,0
0.013122559,5.122680664,12.28332594,0
0.015716553,5.122680664,12.28027418,0
0.015411377,5.122070313,12.2787483,0
0.012817383,5.127563477,12.28332594,0
0.012969971,5.127258301,12.2787483,0
0.013275146,5.132751465,12.28180006,0
0.01083374,5.132141113,12.27722242,0
0.010681152,5.132446289,12.28332594,0
0.012969971,5.137023926,12.28027418,0
0.015563965,5.137023926,12.28332594,0
0.027008057,5.141906738,12.2787483,0
0.056610107,5.142211914,12.28180006,0
0.064697266,5.147399902,12.27722242,0
0.061645508,5.148010254,12.28027418,0
0.069122314,5.152282715,12.28027418,0
0.023498535,5.152282715,12.28180006,0
-0.009002686,5.151977539,12.28332594,0
-0.018768311,5.156555176,12.28332594,0
-0.011444092,5.156860352,12.28180006,0
-0.016021729,5.161437988,12.27111891,0
-0.023345947,5.161437988,12.26654127,0
-0.025787354,5.166320801,12.26806715,0
-0.020904541,5.166320801,12.26959303,0
-0.018615723,5.165405273,12.27111891,0
-0.013885498,5.171203613,12.26654127,0
-0.011444092,5.170898438,12.26959303,0
-0.008850098,5.176086426,12.26806715,0
-0.009002686,5.176086426,12.26806715,0
-0.049743652,5.176086426,12.26959303,0
-0.076904297,5.181274414,12.27111891,0
0.045013428,5.181884766,12.26959303,0
0.52444458,5.181274414,12.26806715,0
1.110687256,5.185852051,12.26959303,0
0.487060547,5.185546875,12.26959303,0
-0.204620361,5.186157227,12.27417067,0
-0.455474854,5.191040039,12.26654127,0
-0.374450684,5.190734863,12.26959303,0
-0.204772949,5.190734863,12.26806715,0
-0.119934082,5.195922852,12.27111891,0
-0.087890625,5.195617676,12.26501539,0
-0.067901611,5.1953125,12.27111891,0
-0.055084229,5.198059082,12.26654127,0
-0.040893555,5.20111084,12.26959303,0
-0.030517578,5.200500488,12.26806715,0
-0.018615723,5.20111084,12.257386,0
-0.006561279,5.205688477,12.25433424,0
0.005493164,5.205383301,12.25586012,0
0.015411377,5.205993652,12.257386,0
0.023040771,5.205688477,12.25891188,0
0.034942627,5.210571289,12.25891188,0
0.042114258,5.209960938,12.25891188,0
0.05355835,5.210571289,12.25586012,0
0.071411133,5.210876465,12.25891188,0
0.089874268,5.210571289,12.25586012,0
0.110931396,5.209960938,12.257386,0
0.134277344,5.210266113,12.257386,0
0.156097412,5.209960938,12.25891188,0
0.171508789,5.210571289,12.25280836,0
0.176391602,5.210571289,12.25891188,0
0.171661377,5.210266113,12.257386,0
0.135955811,5.205078125,12.25586012,0
0.063323975,5.205383301,12.25433424,0
-0.024414063,5.20111084,12.25433424,0
-0.107421875,5.200805664,12.257386,0
-0.164031982,5.199890137,12.25891188,0
-0.197296143,5.195922852,12.25891188,0
-0.212097168,5.190734863,12.25891188,0
-0.212249756,5.190734863,12.24212721,0
-0.204620361,5.186157227,12.24517897,0
-0.18951416,5.186157227,12.24212721,0
-0.173187256,5.18157959,12.24517897,0
-0.155487061,5.176696777,12.24212721,0
-0.139465332,5.176391602,12.24517897,0
-0.122528076,5.171508789,12.24365309,0
-0.106811523,5.171508789,12.24517897,0
-0.091552734,5.166931152,12.24670485,0
-0.077514648,5.162963867,12.24517897,0
-0.065155029,5.162353516,12.24517897,0
-0.055389404,5.157165527,12.24365309,0
-0.048065186,5.156860352,12.24517897,0
-0.040740967,5.151367188,12.24365309,0
-0.035858154,5.151977539,12.24365309,0
-0.030670166,5.151672363,12.24670485,0
-0.026092529,5.146789551,12.24060133,0
-0.023651123,5.146789551,12.24517897,0
-0.018615723,5.147094727,12.24060133,0
-0.016479492,5.141601563,12.24365309,0
-0.016479492,5.141601563,12.24060133,0
-0.018768311,5.142211914,12.24670485,0
-0.021362305,5.142211914,12.24365309,0
-0.018463135,5.14251709,12.23297194,0
-0.014038086,5.141906738,12.23297194,0
-0.013885498,5.141906738,12.23449782,0
-0.010986328,5.141906738,12.23449782,0
-0.009155273,5.141601563,12.23144606,0
-0.004425049,5.14251709,12.23144606,0
-0.001678467,5.141906738,12.23602369,0
0.000610352,5.141906738,12.22992018,0
-0.001678467,5.147094727,12.23144606,0
0.000610352,5.146789551,12.23144606,0
0.003356934,5.147399902,12.23297194,0
0.00579834,5.151672363,12.23297194,0
0.008087158,5.151672363,12.23297194,0
0.012664795,5.151672363,12.23297194,0
0.012969971,5.156555176,12.23144606,0
0.013122559,5.156555176,12.23449782,0
0.012817383,5.15625,12.23449782,0
0.013275146,5.161437988,12.23144606,0
0.012969971,5.161743164,12.23144606,0
0.013275146,5.167236328,12.23297194,0
0.013275146,5.166931152,12.23144606,0
0.013122559,5.171203613,12.23449782,0
0.013122559,5.171813965,12.22686842,0
0.012969971,5.176391602,12.21923903,0
0.014648438,5.17578125,12.21923903,0
0.015716553,5.180664063,12.21771315,0
0.012969971,5.185546875,12.22076491,0
0.013122559,5.186462402,12.21923903,0
0.012969971,5.190429688,12.21618727,0
0.012969971,5.191040039,12.21923903,0
0.012969971,5.195617676,12.21923903,0
0.012969971,5.200500488,12.21771315,0
0.010528564,5.200500488,12.22076491,0
0.012969971,5.205993652,12.22076491,0
0.024414063,5.210571289,12.22381666,0
0.053253174,5.215759277,12.22229078,0
0.056610107,5.220031738,12.21923903,0
0.06072998,5.224914551,12.22229078,0
0.069885254,5.229492188,12.22381666,0
0.023956299,5.234680176,12.22076491,0
-0.006103516,5.238952637,12.22076491,0
-0.018157959,5.245056152,12.21923903,0
-0.013885498,5.249938965,12.21923903,0
-0.021514893,5.254211426,12.22076491,0
-0.028533936,5.258789063,12.22381666,0
-0.030822754,5.266113281,12.22076491,0
-0.031280518,5.273742676,12.21923903,0
-0.025939941,5.278625488,12.21923903,0
-0.021057129,5.283508301,12.207032,0
-0.016174316,5.293273926,12.207032,0
-0.016479492,5.298156738,12.20855787,0
-0.018463135,5.307922363,12.20855787,0
-0.074157715,5.312194824,12.20855787,0
-0.078125,5.322570801,12.20550612,0
0.100402832,5.327758789,12.20855787,0
0.713653564,5.337219238,12.20855787,0
1.024017334,5.342712402,12.207032,0
0.31036377,5.350952148,12.20855787,0
-0.276641846,5.361022949,12.20855787,0
-0.453948975,5.36895752,12.207032,0
-0.344848633,5.376586914,12.207032,0
-0.147094727,5.386047363,12.21008375,0
-0.102539063,5.395507813,12.20855787,0
-0.074920654,5.40435791,12.20855787,0
-0.055389404,5.410461426,12.207032,0
-0.043334961,5.420227051,12.20550612,0
-0.034332275,5.4296875,12.207032,0
-0.024261475,5.439453125,12.20855787,0
-0.016174316,5.449523926,12.207032,0
-0.004272461,5.458374023,12.207032,0
0.005950928,5.463867188,12.19482496,0
0.015106201,5.473022461,12.19482496,0
0.02456665,5.483398438,12.19635084,0
0.032653809,5.493164063,12.19635084,0
0.041656494,5.503234863,12.19787672,0
0.054016113,5.513305664,12.19329908,0
0.069122314,5.522766113,12.19482496,0
0.087738037,5.532531738,12.19482496,0
0.109863281,5.541687012,12.19482496,0
0.130462646,5.551452637,12.19482496,0
0.14755249,5.558776855,12.19787672,0
0.158538818,5.56640625,12.19635084,0
0.166778564,5.575561523,12.19329908,0
0.157775879,5.586547852,12.19635084,0
0.113372803,5.591430664,12.19329908,0
0.043182373,5.600585938,12.19482496,0
-0.041809082,5.609436035,12.19482496,0
-0.113067627,5.615539551,12.19329908,0
-0.158233643,5.624694824,12.1780403,0
-0.186462402,5.629882813,12.18566969,0
-0.199890137,5.639953613,12.18414381,0
-0.19744873,5.644226074,12.18261793,0
-0.18951416,5.654907227,12.17956617,0
-0.173187256,5.664367676,12.18261793,0
-0.155487061,5.674133301,12.18414381,0
-0.139465332,5.682983398,12.18414381,0
-0.122070313,5.690612793,12.18109205,0
-0.107116699,5.700683594,12.18261793,0
-0.094451904,5.712280273,12.17346266,0
-0.079956055,5.722351074,12.16888502,0
-0.070037842,5.732421875,12.17346266,0
-0.062713623,5.741577148,12.1704109,0
-0.057830811,5.752258301,12.17346266,0
-0.05279541,5.766296387,12.17193678,0
-0.038909912,5.776062012,12.16888502,0
-0.033416748,5.790100098,12.1704109,0
-0.028686523,5.80078125,12.16888502,0
-0.023651123,5.81237793,12.1704109,0
-0.023498535,5.825195313,12.17346266,0
-0.018768311,5.838928223,12.16888502,0
-0.021362305,5.849304199,12.1704109,0
-0.016479492,5.864257813,12.16888502,0
-0.016326904,5.874328613,12.1704109,0
-0.018920898,5.888061523,12.1704109,0
-0.015869141,5.8984375,12.17193678,0
-0.011444092,5.912780762,12.1704109,0
-0.00869751,5.926818848,12.17193678,0
-0.008850098,5.937194824,12.15972975,0
-0.008850098,5.952148438,12.15820387,0
-0.003967285,5.961914063,12.15820387,0
-0.001525879,5.975952148,12.15820387,0
-0.001678467,5.985717773,12.16125563,0
0.003051758,6.000976563,12.15972975,0
0.003356934,6.010437012,12.16125563,0
0.003204346,6.025390625,12.15972975,0
0.003356934,6.035461426,12.15972975,0
0.007324219,6.049499512,12.16125563,0
0.010681152,6.059570313,12.15972975,0
0.008392334,6.07421875,12.16125563,0
0.010681152,6.083984375,12.15820387,0
0.008392334,6.09375,12.16125563,0
0.008239746,6.10748291,12.16125563,0
0.010681152,6.118164063,12.15820387,0
0.010681152,6.127929688,12.16125563,0
0.008087158,6.137390137,12.16125563,0
0.008392334,6.151733398,12.15972975,0
0.009918213,6.162109375,12.16125563,0
0.005950928,6.172485352,12.16125563,0
0.008087158,6.182250977,12.16125563,0
0.010528564,6.190490723,12.15820387,0
0.013427734,6.200561523,12.15972975,0
0.019683838,6.210327148,12.14599684,0
0.030212402,6.220092773,12.14599684,0
0.054321289,6.229858398,12.14752272,0
0.04699707,6.240539551,12.14447096,0
0.069122314,6.249694824,12.1490486,0
0.048065186,6.259155273,12.14752272,0
0.005340576,6.26953125,12.14752272,0
-0.011291504,6.279907227,12.1490486,0
-0.006561279,6.288757324,12.14447096,0
-0.006866455,6.297912598,12.14294508,0
-0.016326904,6.303710938,12.14752272,0
-0.021209717,6.313476563,12.14447096,0
-0.018768311,6.323852539,12.14599684,0
-0.01373291,6.332397461,12.14294508,0
-0.011138916,6.337585449,12.14752272,0
-0.009155273,6.346740723,12.15210035,0
-0.006561279,6.356506348,12.14447096,0
-0.006866455,6.361694336,12.14447096,0
-0.040588379,6.371459961,12.1490486,0
-0.075073242,6.376342773,12.14752272,0
0.011138916,6.386413574,12.14447096,0
0.385437012,6.391601563,12.1490486,0
1.027832031,6.40045166,12.1490486,0
0.618743896,6.405639648,12.13836744,0
0.009002686,6.415710449,12.13378981,0
-0.375823975,6.41998291,12.13226393,0
-0.413360596,6.42578125,12.13226393,0
-0.266876221,6.434631348,12.13378981,0
-0.141448975,6.440734863,12.13684157,0
-0.093383789,6.443786621,12.13531569,0
-0.072784424,6.449584961,12.13684157,0
-0.054779053,6.45904541,12.13684157,0
-0.038452148,6.464233398,12.13531569,0
-0.030517578,6.468811035,12.13684157,0
-0.021057129,6.473693848,12.13684157,0
-0.016174316,6.47857666,12.13684157,0
-0.008850098,6.483764648,12.13378981,0
0.000305176,6.488342285,12.13378981,0
0.010070801,6.497192383,12.13378981,0
0.015869141,6.50390625,12.13531569,0
0.025177002,6.508178711,12.13378981,0
0.038909912,6.512451172,12.13378981,0
0.051879883,6.517944336,12.13378981,0
0.06652832,6.522521973,12.13531569,0
0.08392334,6.522521973,12.13531569,0
0.10559082,6.527404785,12.13378981,0
0.127868652,6.532287598,12.13378981,0
0.139923096,6.53717041,12.13378981,0
0.14755249,6.538085938,12.13073805,0
0.152130127,6.543273926,12.13836744,0
0.12802124,6.547851563,12.12158278,0
0.07019043,6.546936035,12.12158278,0
-0.000915527,6.552734375,12.12310866,0
-0.074310303,6.552124023,12.12310866,0
-0.13092041,6.552429199,12.1200569,0
-0.163116455,6.557617188,12.12310866,0
-0.180053711,6.557617188,12.12158278,0
-0.184783936,6.562194824,12.1200569,0
-0.172729492,6.561889648,12.12310866,0
-0.15625,6.562194824,12.12463453,0
-0.143585205,6.561889648,12.12158278,0
-0.126495361,6.566772461,12.12310866,0
-0.111694336,6.566467285,12.12310866,0
-0.095062256,6.567382813,12.12463453,0
-0.082397461,6.572265625,12.12310866,0
-0.068664551,6.571960449,12.12158278,0
-0.057678223,6.571655273,12.12310866,0
-0.050506592,6.575622559,12.12463453,0
-0.045471191,6.577148438,12.12158278,0
-0.038146973,6.576538086,12.11853102,0
-0.030822754,6.576538086,12.1200569,0
-0.025939941,6.581115723,12.12463453,0
-0.023498535,6.581726074,12.12463453,0
-0.021514893,6.58203125,12.12463453,0
-0.018463135,6.585388184,12.1124275,0
-0.018615723,6.586914063,12.11090162,0
-0.018615723,6.587219238,12.11090162,0
-0.018768311,6.586608887,12.1124275,0
-0.018615723,6.591491699,12.11090162,0
-0.012054443,6.591796875,12.10937575,0
-0.009155273,6.590576172,12.11090162,0
-0.00869751,6.591796875,12.10937575,0
