hEOG,vEOG
-0.007844131793270075,-0.00501610049671002
-0.007800218896652773,-0.004983648483495484
-0.007841953938259028,-0.005016356005572752
-0.007882569012030497,-0.005057718365766099
-0.007843977494297123,-0.005033728032483588
-0.007802443986984168,-0.004985047153002516
-0.007842002241747645,-0.005016291390453838
-0.007879881915489169,-0.005057086633092342
-0.007841662933711782,-0.00502330379077027
-0.007799453729076022,-0.004988421643445262
-0.007838811441630787,-0.0050126724217101565
-0.007882316485995076,-0.005054702771082581
-0.007843830849252968,-0.005032649650935127
-0.007805114921745043,-0.004986800968660482
-0.007841391478011345,-0.005025050015382885
-0.007881266303646222,-0.005053538687576746
-0.00783766827813045,-0.005034915055697387
-0.007796610288540069,-0.004991430709955382
-0.007845445164300214,-0.005015422215719273
-0.007883307789746677,-0.005057733553894585
-0.00784334869114175,-0.005031749970658817
-0.007796735978230338,-0.004990531148429869
-0.00784446950636615,-0.005018940989104546
-0.007890576383986525,-0.005055988627932825
-0.007849968906118422,-0.005026735028284451
-0.007803927196392051,-0.004984161187305834
-0.007848254313587908,-0.0050227191867083
-0.007890469277950285,-0.005054329951187681
-0.007847139670065617,-0.005033733003613593
-0.007807631085266252,-0.004985076024653502
-0.00784989314032734,-0.005018151212139815
-0.007888211321035656,-0.005058784999099103
-0.007848119186339462,-0.005028624358492125
-0.007809401830960432,-0.004985460488770042
-0.007846671597171721,-0.005013410298537264
-0.007893166591081323,-0.0050538578768635125
-0.007846107724554212,-0.0050244171658845194
-0.007803185544463285,-0.0049820792075666856
-0.007851637954673793,-0.005021253783785016
-0.007891882058104427,-0.005060392122540054
-0.007845483506554644,-0.005029950789985144
-0.007804092587389221,-0.0049892683117056524
-0.007846027429957542,-0.0050196676113438594
-0.007892438054970481,-0.00505862146935465
-0.00785048828773446,-0.005037810115384943
-0.007807829294255717,-0.0049801117576313125
-0.007852204232573507,-0.005017662785248593
-0.00789092837667052,-0.005060431827206066
-0.007844771624799327,-0.00503170372570307
-0.00781135930263974,-0.0049921779308894805
-0.007857143878771731,-0.005018818147982356
-0.007897382673440864,-0.005054843659075477
-0.007852412116202318,-0.005028275546091184
-0.007810261175060757,-0.004989777347484528
-0.007858601598836187,-0.005025521340780046
-0.007900298605700223,-0.005059324869020604
-0.007858058583125082,-0.005034650825376899
-0.00781864367176936,-0.0049960344993966255
-0.007856784657085725,-0.005022367384995971
-0.007897357839851397,-0.005069264398299668
-0.007858377963279036,-0.0050349683761118915
-0.007817648304055978,-0.004988156614594215
-0.007857120797620461,-0.0050237960419972855
-0.007906023876335832,-0.005065536101055452
-0.007861894592016076,-0.005036556263320834
-0.007813604706078269,-0.0049909902050241685
-0.00785677266838458,-0.005019367759834613
-0.007905389503663466,-0.005068830606509662
-0.007864432381112866,-0.005035430270564824
-0.007816486862615575,-0.00499948149911081
-0.007861650676909943,-0.005038763691637274
-0.007902800032974038,-0.005068048873875074
-0.007853679343688346,-0.005022859950629472
-0.007810151866878725,-0.0049878375294298135
-0.00785941806404234,-0.005017994110921073
-0.007894872981584738,-0.00505929117586798
-0.007852676160919348,-0.005012379667357388
-0.007811104011301261,-0.004981333626422748
-0.007856342033388076,-0.005013488434401894
-0.007893917025262766,-0.005043660231049792
-0.007849953560746897,-0.005024760855905143
-0.007805939000807012,-0.004983179028936724
-0.007851242732199878,-0.005006141418392674
-0.007897472006134696,-0.005051154573252095
-0.007850789960564434,-0.005025004777651838
-0.007812200047104186,-0.004990239981621544
-0.007854459866596985,-0.0050192087256291824
-0.007892730139697619,-0.0050526258788080505
-0.007854447292024145,-0.005022254066893001
-0.007811605344733258,-0.004984374114738412
-0.00785340947446869,-0.005025983552370067
-0.007897063841871235,-0.005064392016504931
-0.007849666975844855,-0.005023155819384201
-0.007811516281725502,-0.004993304815487079
-0.007853604023792716,-0.005018773636075465
-0.007898515111875568,-0.0050675873129581665
-0.007855410653157825,-0.0050287197301680025
-0.007814343777602959,-0.004995154320112567
-0.007859152598307457,-0.005021803083613669
-0.007898073787079686,-0.005050682827054614
-0.007858820413522562,-0.005022239601274315
-0.007813404794891458,-0.004983191703407833
-0.007863537589328111,-0.005017277756262146
-0.007905563585314794,-0.005050616184538097
-0.007865043530556226,-0.005016228451622637
-0.007818868039917852,-0.0049751353749883905
-0.007866056523415333,-0.00501518932117926
-0.007907767513349316,-0.005048044171583354
-0.007865753632492365,-0.005023761552812054
-0.007823579024549387,-0.004985323212513231
-0.007866298398697194,-0.005024307853023961
-0.007910293205709028,-0.005067370329494146
-0.007868495783164554,-0.0050336888664309675
-0.007825847596620404,-0.0049933663291658196
-0.007866462536144,-0.005027107673648751
-0.007908369940381063,-0.005064577795094083
-0.007866668264979348,-0.005027823409820654
-0.007819538835538866,-0.004986810391843041
-0.007864900360338593,-0.0050102353122599775
-0.007902186193041203,-0.005074913018781045
-0.00787322631763945,-0.005055625080234097
-0.007827592947418874,-0.005018989732242305
-0.007873299538938398,-0.005058620176078137
-0.007916741614397043,-0.0051116869198665335
-0.007878216227450318,-0.0050746810881481105
-0.007829793383450044,-0.005027002935825186
-0.007876978021352706,-0.005057987523823123
-0.007908129131777334,-0.005099098341501412
-0.007863455052393432,-0.005062630468556133
-0.00783107620858026,-0.005027799076160945
-0.00787805271587593,-0.005070929761044874
-0.00791761222859935,-0.00510410597942081
-0.007874575862551305,-0.005080168982294274
-0.007832598353432037,-0.005036320721153596
-0.007879685833557278,-0.005072682961987354
-0.007922641346943827,-0.0051093919969461945
-0.007876781266575874,-0.0050768584492078776
-0.007831112154533254,-0.005036043615873695
-0.007881455314838526,-0.005070695202496185
-0.007920562183628754,-0.00511386572850691
-0.007879789800925074,-0.005088786512370018
-0.007834307626293927,-0.005034668052405814
-0.007884384367422849,-0.005073226614962089
-0.007921699241399778,-0.005108250856933049
-0.007875720084651162,-0.0050859448240046555
-0.00783306011962731,-0.00504268828655906
-0.007877797924619314,-0.005065941593862631
-0.00792563634711287,-0.0051083899673902
-0.00788541470913009,-0.0050745677793204175
-0.007841401382410918,-0.005035916765434556
-0.007886763367967495,-0.005073548300155895
-0.007926459079565507,-0.005119254987732849
-0.007880395200863062,-0.005080546451168622
-0.007840582325498908,-0.005040499971308595
-0.007885289846292472,-0.005075333016512038
-0.007928507695933337,-0.005111611454564323
-0.007884495501616219,-0.00508393263959936
-0.007840992206129844,-0.005042946294130094
-0.00788474634034282,-0.005074296061347896
-0.007924322080295447,-0.005117999665254937
-0.007883471310403576,-0.005091583602957033
-0.007835835004707697,-0.005051658725212403
-0.007878072236730272,-0.005084421864781249
-0.007926084780207473,-0.005114817970743902
-0.007881738783070136,-0.005087572005302681
-0.007839746921727514,-0.005041790599971249
-0.007879503058140317,-0.0050739360928027475
-0.00792397136113206,-0.005116353897330868
-0.007880288898054932,-0.005086655542254358
-0.007841051878993944,-0.005045026095452057
-0.007888010025260643,-0.00507468805317964
-0.007925669145853907,-0.005121956044294047
-0.007881484388947183,-0.00508692468436489
-0.007838144287852242,-0.005044728597985437
-0.007885142626310501,-0.00508538204809431
-0.007922058016317977,-0.005124031382248471
-0.007882378621532092,-0.005082710399197366
-0.007833714782863368,-0.005050219239902371
-0.007882843277669522,-0.005079196487284511
-0.007921307196050123,-0.005116575714690667
-0.007878893308363891,-0.005079617695193925
-0.007837174614617418,-0.005045767662318347
-0.007886733467257871,-0.005080170136275772
-0.007924422776204318,-0.005118524625217552
-0.007875774327732532,-0.005085160198342624
-0.007834225812927767,-0.005050879144370495
-0.007880997109544232,-0.005080100381133943
-0.007920739124515044,-0.005122004723650849
-0.007880644122961446,-0.005086947400510169
-0.007841204637390324,-0.005049462925798297
-0.007884993019645,-0.005089464901455285
-0.007920802644755134,-0.005123366735160043
-0.007870825451271504,-0.005097683574526098
-0.007831001232194832,-0.0050511098477260385
-0.007877353108149986,-0.005095113323751682
-0.007917675778983342,-0.005130229286177018
-0.007873680614793247,-0.005098088657300823
-0.007827250010741466,-0.0050699461127808555
-0.007871420179761314,-0.005095970691324292
-0.00791390962622442,-0.0051396633492097644
-0.00786941086742343,-0.0051076609997431684
-0.007835484332207161,-0.005067773663204673
-0.007879271712643738,-0.0051024203925319695
-0.007921262154568632,-0.005140736461577594
-0.007878900803361127,-0.005106855145369339
-0.007838010412193432,-0.0050683397307500315
-0.00789285364892681,-0.005102100778209565
-0.007929923342674854,-0.005140300037189719
-0.007884851756726256,-0.0051074369335365214
-0.007842804399775824,-0.005054823159796045
-0.007881875825715609,-0.005098969369712643
-0.007926655092259139,-0.005134744585933911
-0.007882525636671201,-0.00510337047891869
-0.007829913857577524,-0.005066478496372181
-0.007875555812509538,-0.005099984803025598
-0.007917440990123889,-0.0051428448681560155
-0.007874863134577754,-0.005109515226684731
-0.007824911112457885,-0.005072972444588436
-0.00787049767968642,-0.005106966410457158
-0.007913439689488433,-0.0051390654948170215
-0.007871536234795327,-0.005112147701897179
-0.007830236247241178,-0.005065480278532458
-0.007878026715967863,-0.005102104058175212
-0.007917359830420584,-0.005135098851800264
-0.007881501105735883,-0.0051066855006844745
-0.007835898021776116,-0.005072115327558964
-0.00788784359098925,-0.005102271706970223
-0.007927249265589754,-0.005146101075663525
-0.007886362870532187,-0.0051011985732458244
-0.007842481400114459,-0.005062206433244688
-0.007891246180016097,-0.005097339604148502
-0.007926260431740129,-0.005132056819643849
-0.007887800103600979,-0.005101932948526246
-0.007842796178892822,-0.005052508128860933
-0.007879286099878159,-0.005091864567215248
-0.0079198909708113,-0.0051560925554792955
-0.007881541918556738,-0.005137690474115698
-0.007839386854177238,-0.005108480536650511
-0.007886765217390854,-0.005164350181373126
-0.00792991293087746,-0.005214590503457216
-0.007887959564468824,-0.005187714324623927
-0.007848432602959126,-0.005157146568316882
-0.00789073204493162,-0.00518615465546061
-0.007936004125845126,-0.005218726085162574
-0.007899575752995734,-0.005195549450208689
-0.007858669252126756,-0.005150714727034485
-0.007895792355267432,-0.005185887896781665
-0.007941511528093347,-0.00522513305716344
-0.007895258784989404,-0.005184984482782515
-0.00784658844989274,-0.0051480966782556925
-0.007898964183584314,-0.005184023366391131
-0.007936290942568352,-0.005218995838536379
-0.007887425890833398,-0.005181286184914034
-0.00784213096868497,-0.005151532079999449
-0.00789360448741518,-0.005180064905026097
-0.007930097636631767,-0.005227226828429883
-0.007882968888435524,-0.0051859139220120035
-0.007839659158782732,-0.0051555549464824815
-0.007888693700792345,-0.005190900262367308
-0.007929158764538318,-0.005235926807426689
-0.00788791255705286,-0.005200987651555203
-0.007843565116596105,-0.0051672906296249595
-0.007891338653833457,-0.005193082458934574
-0.007928491752842791,-0.00523521995626051
-0.007881105802035127,-0.005189045966874556
-0.007841792594457898,-0.005156607581486751
-0.007889683550655467,-0.005194831827573979
-0.007927086836949917,-0.005209923741650632
-0.0078841328936531,-0.005188877266509888
-0.007842666475382091,-0.005155467851595509
-0.007886329648310497,-0.0051880975624385975
-0.007926190826383104,-0.0052267039740499935
-0.007881560900012588,-0.005202576840919753
-0.007838132040267124,-0.005164563191988833
-0.007884359520336079,-0.005198018599193647
-0.007926189456909885,-0.0052418762820428035
-0.00788223002579484,-0.0052143291876696005
-0.007839968122039432,-0.0051647186707271114
-0.007885815289700487,-0.005214820170583958
-0.00791927612630139,-0.005242954590708049
-0.007886919131443,-0.005216390583054187
-0.007838211409993117,-0.005180900569730782
-0.00788969907480853,-0.005196743871179369
-0.00792476846818003,-0.005243529304648511
-0.007869167464484165,-0.00523478334596714
-0.00782741510637194,-0.005204361227981993
-0.00787314123768091,-0.005253593071852426
-0.00791477353357004,-0.005294362559698439
-0.007867745923707238,-0.005275154273484818
-0.007823601355306825,-0.005245253252335147
-0.007870697124914398,-0.0052705964197379196
-0.007905660354501963,-0.005314397185716937
-0.007862667146182402,-0.005277797573068194
-0.007810330199403288,-0.005238052660960389
-0.00786341736675896,-0.005275002049638978
-0.007900695547841315,-0.0053142803629204404
-0.007851226046444228,-0.005288110465638283
-0.007817582925212346,-0.005247673335789179
-0.007867389506572764,-0.0052754023536183
-0.007904433579108023,-0.0053142198243169335
-0.007861420583165999,-0.00528608326446702
-0.007819399483053624,-0.005237307667067327
-0.007861430913834257,-0.005274226595284519
-0.007902480580673957,-0.005312903852170355
-0.007853989279513317,-0.005289292874635077
-0.007817415274299418,-0.005252975098937006
-0.0078594462452393,-0.005292717374104028
-0.007895180619413158,-0.0053226207757527365
-0.00785456832723196,-0.0052889019732202764
-0.0078124436749936604,-0.00525650676458285
-0.007864404528010993,-0.005290334185895638
-0.0079062052824583,-0.005315088186874806
-0.007864621105145854,-0.0052961250685392884
-0.007822881157884841,-0.005254548941246868
-0.007868870049385204,-0.00529025994081442
-0.007899640987552966,-0.005325258275774042
-0.007854967066453005,-0.00528886805497892
-0.007809738070382482,-0.005257659994851515
-0.00786055891438773,-0.005284485383149021
-0.00790015441921777,-0.005326880822465991
-0.00785534648337645,-0.005289769458171833
-0.007814457011336378,-0.005265129265222552
-0.00785785451988906,-0.005298916319618062
-0.007896432497153398,-0.005336561909866621
-0.007853594818687354,-0.005296955280998292
-0.007813202374804514,-0.005255428975807999
-0.007859538164326947,-0.005306330706590908
-0.00790021017229647,-0.005327339020503742
-0.007854180607539453,-0.0052971762668500375
-0.007808788053649818,-0.005259912062221128
-0.007857287357876828,-0.005288992646867488
-0.00789586067878745,-0.005330677054318422
-0.007855883982949534,-0.0053032157931498115
-0.007809143697285655,-0.005266538811040408
-0.007861943256793185,-0.00529966489656
-0.007897628996311272,-0.005331627259725148
-0.00785257428412954,-0.005301641651837412
-0.007811656884504195,-0.005259205624397311
-0.007855083355954666,-0.005302445636712611
-0.0078928904206122,-0.005329802335283132
-0.00784242631297199,-0.005303193535875193
-0.007798875156711778,-0.005268458551834359
-0.007850747222138242,-0.005299702523139345
-0.007890265130963721,-0.00533491315239465
-0.007847887306284492,-0.005299799323784241
-0.0078076408813850815,-0.005254424854888241
-0.00785194360500624,-0.0052906667829615605
-0.007890136243683472,-0.0053293487901959384
-0.007846931304572004,-0.005292740637058944
-0.0078039880382474265,-0.005261859821076841
-0.007847091935188143,-0.0052998257843750755
-0.00788689495103553,-0.005332373019938762
-0.007846572313538445,-0.0053013407626016475
-0.0078005090422106176,-0.005262070733357597
-0.007852967823134634,-0.0052914956704992605
-0.007888939253383577,-0.005332163489159132
-0.007839929699273128,-0.005299663026613334
-0.00780034378573397,-0.005262909605836382
-0.007846725176920064,-0.005296061711092967
-0.007883212618902291,-0.00533211808941893
-0.007829922707967748,-0.005295508873829816
-0.0077938525358185904,-0.00525441917356068
-0.007843975789310195,-0.0052934220321527075
-0.0078889368495239,-0.005329080975638414
-0.007834418199327724,-0.005294842262821626
-0.0077899837450386865,-0.005261247332330062
-0.007873688633957711,-0.00529216914478395
-0.00794202180139486,-0.00531576918622994
-0.007930002815114875,-0.005285676005973858
-0.007904831499005668,-0.005249465869616144
-0.008007806934117987,-0.0052748286635406726
-0.008070882698181596,-0.005324579007031306
-0.008074811963800093,-0.005284644055132997
-0.008068598663714732,-0.005252152376228392
-0.00815951684309585,-0.005303561327988868
-0.008291242545626028,-0.005324955631072013
-0.008255753330421056,-0.005304267658396913
-0.00829063276508595,-0.005268667332150101
-0.008384316915270765,-0.005309165625395637
-0.00848700845324444,-0.0053407447244955665
-0.008476257942534015,-0.005305045856218034
-0.008466335545380243,-0.005266325927293841
-0.008530092637305328,-0.005300383633629248
-0.008579928617123405,-0.005345362930553407
-0.00854767294667352,-0.005297258104200132
-0.008506967808900628,-0.005263586745318423
-0.008555629363438129,-0.005296653277429163
-0.008591019816611294,-0.005321791126494738
-0.008529706203842077,-0.005302080685885474
-0.00848291499652598,-0.00525981404722182
-0.008500996607418506,-0.005292583983384083
-0.008521651739159967,-0.005324687894449854
-0.00845092502938898,-0.005286313732723634
-0.008394265118039331,-0.005257573102435183
-0.00842367999496656,-0.00528873855325489
-0.008456278302259798,-0.005320014284274956
-0.00839681599080273,-0.0052842527253404836
-0.008345854549809592,-0.005244966939586791
-0.008378076873511569,-0.005281456152119733
-0.008407336234300778,-0.00530903730982183
-0.008347317509077967,-0.005269003132803109
-0.00830663503613758,-0.005233982024607521
-0.008347963500469765,-0.005269837338621215
-0.008378603375008216,-0.005300013382490685
-0.008320191630649175,-0.005259132471731548
-0.008272775509987739,-0.005225422429667583
-0.008319469220785575,-0.005256892150127265
-0.008351029835661149,-0.005291123085781816
-0.008298611609619543,-0.005264731296764354
-0.008256124216327546,-0.005216558364916127
-0.008301558211962637,-0.005264099974735944
-0.008335535123286872,-0.0052968824646186935
-0.008286173243240007,-0.005255726537088614
-0.008237520907954867,-0.005230610421499119
-0.00828851885314303,-0.005259710253124239
-0.008324950610380586,-0.00529140384175103
-0.008281664090314996,-0.005265998175696379
-0.008230919192300594,-0.005217850567215987
-0.00828156421586393,-0.005257355428757808
-0.008315839259963449,-0.005286258309632042
-0.008265237191925037,-0.005258280849358922
-0.008227021141882849,-0.005224493124026357
-0.008266742212682587,-0.005258811450043377
-0.00830153121083424,-0.005286322885835923
-0.008256283882974447,-0.0052577612012224125
-0.008215336863361757,-0.005213218831537834
-0.00825817082070449,-0.005246153649550712
-0.00829547321464395,-0.005295011886490538
-0.008253208747606594,-0.0052510515840890745
-0.008212735431474839,-0.005218700248847289
-0.008258537171999926,-0.005247144146777163
-0.008304117820883142,-0.005287890920107142
-0.008247662340600821,-0.005255345633662233
-0.008202978440697086,-0.005216107573484831
-0.008250957546955455,-0.005242627416567757
-0.008291326667240806,-0.0052889755605729505
-0.008250268086636982,-0.005247655546888413
-0.00820210796220777,-0.005201470614796663
-0.00826565982246264,-0.0052438689835782
-0.008296837914930112,-0.005291975964472772
-0.008249700041043884,-0.005256797149245634
-0.008212272616693675,-0.005210811848653091
-0.008275215372859497,-0.005249739976246697
-0.008301047725822032,-0.005285323427319111
-0.008260532162423838,-0.005253876347628022
-0.008231337101214752,-0.005215814712370077
-0.008304228324284095,-0.005232402561351975
-0.008333454750865709,-0.005278308294304557
-0.008287996939165902,-0.0052437237538269415
-0.008260274636321672,-0.005203751711830565
-0.008314545448157733,-0.005252623663919803
-0.008396891171693366,-0.005272510978557757
-0.008358065086526988,-0.005241458656899832
-0.008378636274046313,-0.005214223038385606
-0.008477869896492763,-0.005250814810576189
-0.008558273050789702,-0.005295850113978581
-0.008557187492851606,-0.005256679380890877
-0.008601183589522068,-0.005240987173319921
-0.008674942177876769,-0.0052832931490243
-0.008782267680307328,-0.0053149658359316785
-0.00875832339875048,-0.0052825045066964465
-0.00874482579986965,-0.005255170383772261
-0.008793764131727194,-0.005294751209413278
-0.00883543519695323,-0.005319909509470608
-0.008772969788971532,-0.0052859167075397185
-0.008726895387753269,-0.005246043668489269
-0.008746051996283711,-0.0052697498335644135
-0.008773411283200236,-0.005303901610501324
-0.00870193712929913,-0.0052680213910944835
-0.008632796257908092,-0.005224520677389328
-0.008662482328427958,-0.005263758406123282
-0.008681148242357052,-0.005301341914422118
-0.008604768646821838,-0.005252146992796753
-0.00853669700064716,-0.0052267562731185425
-0.00855609990486919,-0.005247991824781605
-0.00857990226575119,-0.005285990666269026
-0.008507377598676055,-0.005250075468261429
-0.008448499305498108,-0.005215438232031638
-0.008481408991582333,-0.005257396194232296
-0.008516742546620852,-0.0053037304146571936
-0.008441659938312366,-0.005257351880181092
-0.008389963863438871,-0.005216021111585119
-0.00842101681438352,-0.005253170958913044
-0.008452921531031981,-0.0052779241709190365
-0.008393509277064315,-0.005251701429061317
-0.008346535789423024,-0.005188542692766199
-0.008387979714273575,-0.00523362138360618
-0.00843106199374979,-0.005265359719968474
-0.008374264600238768,-0.005240061563585146
-0.00833060645051073,-0.005200601644645468
-0.008375206546977427,-0.005236599322462543
-0.008411722135034478,-0.005273365936853585
-0.008358660966728389,-0.0052316251234818785
-0.00831940501111254,-0.0051953240729696246
-0.008357047139755094,-0.005225777456621331
-0.00839179925090727,-0.0052682547871421865
-0.008327450278013794,-0.005229132096181596
-0.008290305230961132,-0.005206052455590301
-0.008334897569689257,-0.005228492217131381
-0.008373715309367298,-0.0052683568493587535
-0.008313081907958368,-0.005229837426262782
-0.008267624442408255,-0.005197779555858265
-0.008316425425733916,-0.005218659980581593
-0.008385951953847203,-0.00525177187376007
-0.008313431504960861,-0.0052349300109211065
-0.008281939148384666,-0.005178334859286407
-0.008349848270292372,-0.005224225322387449
-0.008415184785411959,-0.005269499501400765
-0.00836564466812204,-0.00522526292986968
-0.008325209356929323,-0.005196402454735434
-0.00838683988158146,-0.005241661447899804
-0.008451772359619686,-0.005276827927194927
-0.008452457339036587,-0.00524796496351846
-0.008464961018257423,-0.005222141157371497
-0.008548244842600012,-0.005273166298833985
-0.008632830673199757,-0.005282378967212147
-0.008651673968748084,-0.005296668842901645
-0.008663436049695016,-0.00520803734044793
-0.008741521358826823,-0.005251946231280421
-0.008795519446826877,-0.005292174784952974
-0.008806223102925058,-0.005232704397636083
-0.00876191176513906,-0.005212717504325852
-0.008855266380839198,-0.0052339339869540945
-0.0088903573400911,-0.005237261064836917
-0.008849737590958437,-0.005196254353953032
-0.008820858745518413,-0.005162436845968628
-0.008875070289601439,-0.005165308550776401
-0.00892436235242268,-0.005190204118652828
-0.00889030407467939,-0.00515418508880476
-0.008838696289063742,-0.0050709464169544196
-0.008882498854732407,-0.005122107806433249
-0.008928051271361639,-0.005134344200102538
-0.008862191212756903,-0.005070543404963242
-0.008813281267884738,-0.005014496399811903
-0.008851009751088278,-0.005033284444360563
-0.008864746902051556,-0.005073111378979501
-0.008810867262400365,-0.00500604065496917
-0.00874474903761244,-0.004987672857375732
-0.008768373279918818,-0.00497924154342074
-0.00877526879993129,-0.005015850836459553
-0.008704055023622143,-0.004969590476464806
-0.008642349624433632,-0.0049149123291013916
-0.008664253777765191,-0.004960150437238671
-0.00865757373704681,-0.0049682395940814
-0.008588237820068232,-0.004916693025955411
-0.008525125570525753,-0.004883554077164617
-0.008547463245201125,-0.004904112154647065
-0.008553905913876815,-0.004932351890898368
-0.008498989568911706,-0.004890715161307597
-0.008431169614469214,-0.004855326015499817
-0.008456902235440997,-0.004892262513434698
-0.008478260132598843,-0.0049080770306057205
-0.008412431487807206,-0.004882826326546954
-0.008352727626030995,-0.004859040819929732
-0.008390640393307686,-0.004882781615929492
-0.008413572587099275,-0.004946921061100687
-0.00835393090831514,-0.00489014144427024
-0.00830598976351298,-0.004873170004836777
-0.008345065931613238,-0.004920590816066801
-0.008364723061045796,-0.004936561667267221
-0.008314880515519858,-0.0049103811878643345
-0.008273390684438532,-0.004885992001186648
-0.008309183657679457,-0.00491963079666122
-0.008348313032551938,-0.00494951380567792
-0.008290031088195721,-0.0049143608174128115
-0.008248856509164008,-0.00488414892223485
-0.008290911736621916,-0.004926545214010372
-0.008318345556031101,-0.004974769124370442
-0.008276140695819974,-0.004922638309151506
-0.008235509895481009,-0.004901426340142724
-0.008282914002558792,-0.004956025094639352
-0.008317611946799173,-0.0049789417136364335
-0.00826585449076784,-0.00494470232471309
-0.008221506441734855,-0.004913421021092226
-0.008268691274260621,-0.004958743887406701
-0.008298897346579343,-0.004979878722922356
-0.008248495989813911,-0.004955940206933764
-0.008205307134956798,-0.004911632283179279
-0.008258696781085664,-0.00495796846835912
-0.008284046781260391,-0.004987572370793676
-0.008242353927798676,-0.004955915227006132
-0.008195426997411166,-0.004926713796290277
-0.008250392915147927,-0.004963478025710944
-0.008282497338618137,-0.004995340989360553
-0.008233331102373747,-0.004968241740909458
-0.008201933032862083,-0.004943729895363614
-0.008240258435911073,-0.004967898063525262
-0.00826990993080202,-0.005000326402572843
-0.008224137652906817,-0.004957739817732919
-0.008192845592520813,-0.004939688463959989
-0.008238423317791007,-0.00497392582399316
-0.00827494503732998,-0.004999651378733624
-0.008225838762460852,-0.004974898253531479
-0.008193671219367999,-0.004942759889026341
-0.008244135522317843,-0.004981476021491916
-0.008281480163516793,-0.005011502501515973
-0.00823913477056321,-0.004984967192292402
-0.008212913733038051,-0.0049400002076100055
-0.008283731538187927,-0.0049760875657363125
-0.008305545009741124,-0.005004753911033885
-0.008289132534796398,-0.0049728772833697804
-0.008241888775909496,-0.004929336414758486
-0.008297850517163542,-0.004964187380300356
-0.008351902488429291,-0.004992568462631908
-0.008361813974914353,-0.004946049481931979
-0.008346174951476987,-0.00491534547907918
-0.0084033139270183,-0.00495237680725104
-0.008499517580856942,-0.004982642286299319
-0.008478638591108176,-0.004935371712090526
-0.008506993539991287,-0.0049116005658104474
-0.008575858980963923,-0.004946369603503662
-0.0086345744936104,-0.0049591935709542186
-0.008661452813262376,-0.004920070433648334
-0.008649425530457394,-0.004894588048228363
-0.00870985806678154,-0.0049224585943908284
-0.008765371877998333,-0.004945748632510147
-0.008738419387713643,-0.004904398756526089
-0.008704621946395366,-0.004858657505509963
-0.008746153007805155,-0.004908016562984183
-0.008783516218821482,-0.004931097382543972
-0.008711161663717588,-0.00488046430176301
-0.008649700226277632,-0.004844346249336154
-0.008685367699924304,-0.0048849161239172545
-0.008688456917991094,-0.004927818671284818
-0.008607639736783195,-0.004890368645862166
-0.008552422420569276,-0.004860262345739041
-0.00858167377563227,-0.0048786047835402266
-0.00859269196675568,-0.004914307573698024
-0.008511279593375033,-0.00489259247653616
-0.008452204430144947,-0.004870173252381192
-0.008490061915115765,-0.0049024594682580925
-0.008503747470163416,-0.004939142882774711
-0.008436603808029297,-0.004909235988394253
-0.008382137201641797,-0.004871595881114191
-0.00840696392138577,-0.0049093166142223504
-0.00842497827494332,-0.004948062277783087
-0.00835415967950267,-0.004911169594909367
-0.008305962018524599,-0.004879578066403424
-0.008344708008057039,-0.004916709836150934
-0.008366790872887978,-0.004964188583734712
-0.008307971798061876,-0.0049314444598879525
-0.008257492508171805,-0.004887779811747862
-0.008300597424771707,-0.004924610694695812
-0.008326387075092635,-0.004957690438701775
-0.00827398046801065,-0.004931397126912424
-0.008226846497323007,-0.0048855785539147325
-0.008267375701101717,-0.004926100054843485
-0.008298582015190759,-0.004966285418604711
-0.008242238018588526,-0.004924389905411097
-0.008197978970647184,-0.004895312603655633
-0.008242301657793966,-0.00492648898841302
-0.008295713296765194,-0.004962775708541087
-0.008264687391321732,-0.004916557437169588
-0.008206934141075354,-0.004898541492267055
-0.00831499653430423,-0.004920489548156761
-0.008269252821989372,-0.004959045235967167
-0.008309190938739264,-0.004924901484231319
-0.008245600333295936,-0.004886785664439182
-0.008311210739974878,-0.004917680035843522
-0.008456107052250673,-0.004926733791568751
-0.008419316322293457,-0.004887889741573454
-0.008421094251339193,-0.004817962376314681
-0.00856279477201943,-0.004887725211898692
-0.008650523179369613,-0.004943996190544881
-0.00864539195644581,-0.0049289760238065946
-0.008672902206295208,-0.0049002955697521
-0.008743965181573186,-0.004946484095333791
-0.008795389620466625,-0.004996566511168292
-0.008731512300417884,-0.004993994606025577
-0.008728289267991074,-0.004974721060962119
-0.00877417293858035,-0.0050246910497970905
-0.00880037492603979,-0.005087010080414948
-0.008744333081576882,-0.005050120055980203
-0.008689781301515992,-0.005035099581534399
-0.008708557662664524,-0.005092941518959656
-0.008724325391720493,-0.005143799277708294
-0.008629239880058608,-0.005136664128620774
-0.0085672130695508,-0.0051172170934513025
-0.008569802956554632,-0.0051792010703439586
-0.008569094375195294,-0.005216413976583763
-0.008481917149107194,-0.005197819833208627
-0.008400399808034238,-0.0051806951926483226
-0.008403015452174555,-0.005240951072036233
-0.008403283391882226,-0.005287081269197663
-0.008326655660266892,-0.005266958064495771
-0.008263918378623438,-0.005248962388434105
-0.00827678003330214,-0.005294511996962917
-0.008295880273390817,-0.005340837936953271
-0.008218429650163703,-0.005317763352175238
-0.00817259340832374,-0.005286668998398927
-0.008197210240745378,-0.005303439076801283
-0.008219285620959785,-0.005340482167397792
-0.008159076463793435,-0.0053052798850988
-0.008127644522553892,-0.0052720377724698566
-0.008161319308138768,-0.005304603308637228
-0.008191475346152284,-0.0053297731483597744
-0.008141466350258586,-0.005308268748033911
-0.008099014754216188,-0.005273592241965451
-0.00814705899138647,-0.0053041081445100256
-0.008180685455745835,-0.005339363368747365
-0.00813098075296012,-0.005296060162722466
-0.00809294922796852,-0.005266765496231278
-0.008140682490253685,-0.0053001411528450035
-0.008169896974116578,-0.005338599093800361
-0.008112135576626565,-0.0052831904923537135
-0.008078540210364055,-0.005256311656681935
-0.008116935997669382,-0.005302175164249655
-0.008152938396332996,-0.005330730383755713
-0.008104825960943455,-0.005287603382830907
-0.008074080702268683,-0.005257701098099844
-0.008121075838234163,-0.005284613875603333
-0.008155000218729292,-0.005332236737962823
-0.008110705971987434,-0.005280665247260567
-0.008076043840421498,-0.005267113559420335
-0.008126972916727235,-0.005303106835648629
-0.008159001151984561,-0.005323561380762434
-0.00810718015304547,-0.005292741739699526
-0.008075525446389674,-0.00525465563015796
-0.008119385076752358,-0.005298585987524045
-0.00815293178856171,-0.005310977103971916
-0.008103567954901017,-0.005282724822646476
-0.008070018939925313,-0.0052392748903937175
-0.008117061594501755,-0.005272636609759765
-0.008144191067985813,-0.005319166890445745
-0.008099226740836601,-0.005270632760382357
-0.008063875240163238,-0.005259310819505505
-0.008101170617700711,-0.005283177594586849
-0.008132176224745954,-0.005321194810607129
-0.008086392813857797,-0.005289728707526795
-0.008057966349791935,-0.0052462845432450006
-0.008107109634496042,-0.005284992821461392
-0.008140616023125834,-0.005318227497315332
-0.008103734962610113,-0.005264140183457157
-0.008066103366287521,-0.005240516409325091
-0.008112586621089034,-0.005283816492663323
-0.008146222444636246,-0.005328440949959946
-0.00809487448095812,-0.0052806455471458265
-0.008065859207528123,-0.005258806173529478
-0.008107286132494148,-0.005295684958100938
-0.008136387588208933,-0.005327168779750377
-0.00808975731452792,-0.005296884567766356
-0.008053751040155734,-0.005265874624560896
-0.008098697714941983,-0.005290000836181657
-0.00813390235164499,-0.005306744526865582
-0.008092488710177648,-0.005293192356554072
-0.008063431414967613,-0.005241768735504043
-0.00810657427678052,-0.005289423632606606
-0.008141287974112043,-0.005302015507576002
-0.008092524017958852,-0.005278725081143955
-0.008052681578483151,-0.005246168606775529
-0.008108187215263771,-0.005277811242335138
-0.00813970384574915,-0.005323725250156262
-0.008089480527920969,-0.005276977542595633
-0.008052079098326738,-0.005250217347935238
-0.00809913281496754,-0.005286832070320688
-0.008139620709169567,-0.005325780662217509
-0.008091170837585444,-0.005294135976029348
-0.008052925467503105,-0.005265609177035276
-0.008099208439600889,-0.005293449233210929
-0.008131581118203102,-0.005329971988761457
-0.008079830173527664,-0.005282455762620683
-0.008050172063095898,-0.005254302956840347
-0.008103988458657134,-0.005282246045295921
-0.008139521821916998,-0.005324971946260953
-0.008091273269553756,-0.005279763142436979
-0.00804805380982229,-0.005261419241989209
-0.008096889563965372,-0.005297441844431081
-0.008133909247521177,-0.005319434340531988
-0.008085666104940216,-0.005288088721742077
-0.008051887635400446,-0.005251120890618472
-0.008099369845341759,-0.005294679694259705
-0.008127883642893418,-0.005314859896192802
-0.008080842428680943,-0.005289954592541259
-0.008042273678620931,-0.005255181817013288
-0.008093034940734692,-0.005295453760595529
-0.008135108000807044,-0.005324218033066051
-0.0080802740593905,-0.005309440952863926
-0.008046980615097793,-0.005248051037046953
-0.008090985305321138,-0.005294601815429021
-0.008132535341574388,-0.005322669176988943
-0.008086499113325542,-0.005284222377368597
-0.008059373806283148,-0.005252005282969933
-0.008104680236148942,-0.005303203186810792
-0.008137209180372381,-0.00530090730274885
-0.008111418351087628,-0.00526259918895419
-0.008082120364042525,-0.005230402163677706
-0.008137405440780041,-0.005246058650673395
-0.008184335360668827,-0.00527806023316328
-0.008147971965737653,-0.005225687066113481
-0.008124769039642717,-0.005208090951197043
-0.008175921038095843,-0.005232138529511153
-0.008207795254806714,-0.005276201100683523
-0.008162060913913579,-0.005222485738958158
-0.008126113047998927,-0.005197123565608189
-0.008179933455645797,-0.00521932002092873
-0.008208969361707272,-0.0052735010195355285
-0.008159796382464243,-0.005234742049660063
-0.008122707114846858,-0.005196158802817117
-0.008173038498900477,-0.00524549932977831
-0.008203137218791384,-0.005268408585509412
-0.008153601789263104,-0.0052282501376344475
-0.008118253759354334,-0.0051877666185591725
-0.008168678354022914,-0.005245746616242863
-0.00820278667374578,-0.005266783058310759
-0.008151974911775097,-0.005243586294432838
-0.00811628379251071,-0.005199834247276746
-0.008159741390904437,-0.005229294269341219
-0.008189826047674919,-0.005267918032602958
-0.00815043970454942,-0.005232471785499144
-0.008113238686007074,-0.005194424188634953
-0.008162695129989439,-0.00523025902250548
-0.008195797041134361,-0.005264229994539394
-0.008148172059501756,-0.005216725255608258
-0.008108352470333226,-0.005182346479475011
-0.008155994558657792,-0.005237523540972619
-0.00818599163646578,-0.005251091090889542
-0.008140156124408859,-0.005234836881668046
-0.00810870833036038,-0.005190042276395971
-0.008154190062700262,-0.005227193945870524
-0.008193694211045347,-0.005275857780709191
-0.00814303246429075,-0.005217623040479741
-0.008102196521057701,-0.005182729803374099
-0.008155781177503952,-0.005227166991773134
-0.00818609177409713,-0.005252138634812809
-0.008135133988199728,-0.005233262306987118
-0.008101715189841223,-0.0051780078279350175
-0.008155060748653105,-0.0052367477844285195
-0.008185609234763507,-0.00524304427464222
-0.00814185909680234,-0.005218204233859769
-0.008105828193688531,-0.005193291256053462
-0.008159055548123878,-0.005210930815717392
-0.008183143129064261,-0.005257060059030773
-0.008139194853241287,-0.005226464300821418
-0.00809601802795878,-0.005180800634499686
-0.00815358940021568,-0.005224942946989371
-0.008191104718561144,-0.005258619471020415
-0.008138938559874225,-0.005222323086620765
-0.008111204650884394,-0.005191083023032
-0.008156150623883652,-0.0052190684078035916
-0.008180054973963027,-0.00525714518228305
-0.008140521974536416,-0.005216616271885792
-0.008109172641153583,-0.005190758829616573
-0.008158948612667733,-0.00521900878203578
-0.008200344118227565,-0.00526826120168853
-0.008154681029014729,-0.0052244039695457205
-0.008125588735117612,-0.005166731943725627
-0.008183149809236784,-0.005220226970764792
-0.008231600954791031,-0.005249133650850496
-0.008192759140315125,-0.005218050081782976
-0.00816411289126101,-0.00518660473631947
-0.008215308407312048,-0.005224991462846432
-0.00825541509326629,-0.005260066816480044
-0.008197631171961827,-0.005212324563196474
-0.008161835908225284,-0.005196842978836164
-0.008204843865595824,-0.005222701549529032
-0.008239121997367212,-0.0052621086081421405
-0.008193494033469187,-0.005219522720900663
-0.008153530673924398,-0.005181549582246452
-0.008212195926175439,-0.005221715869025073
-0.008241480680709854,-0.005252083459959717
-0.008196310178422976,-0.00522031680192029
-0.008156000350963788,-0.005177814779123591
-0.00821755075890711,-0.0052196973344397395
-0.008247314748593453,-0.005251821959689988
-0.008200404001320348,-0.005216825443721606
-0.008157531068694771,-0.00517543033279251
-0.008214745284967555,-0.005227789688991936
-0.008243744584587858,-0.005256701211023109
-0.008199368812006324,-0.005211377976716429
-0.008166583070308377,-0.005179779933236577
-0.008242666048680422,-0.005221242758068074
-0.00828694829462673,-0.005251418901905601
-0.008215901470555577,-0.005217219326249554
-0.00822780044687109,-0.00518290348340473
-0.008284524906318574,-0.00521608751678282
-0.008317952618292903,-0.005264143096195347
-0.008291284858221004,-0.005215943955278955
-0.008315572486049663,-0.005189727999923721
-0.008449192337701864,-0.0052270512277273655
-0.008551995538451238,-0.0052695893736122105
-0.008645857762008501,-0.005208757732724804
-0.008664961862196105,-0.0052103986417797316
-0.008739778118937091,-0.005250954780788553
-0.008831761625547354,-0.005281733430138199
-0.008793172943432211,-0.005230501649747513
-0.008775954444247476,-0.005192081411703942
-0.00881166173551807,-0.005255718435764222
-0.008833969772302165,-0.005280353222445241
-0.008752241076022023,-0.005249450786775737
-0.008685597163993385,-0.005225289086493032
-0.008690891687544599,-0.005261903769735041
-0.008686372296104498,-0.005290432178506412
-0.008588758014059419,-0.005267740998833134
-0.008515614612437756,-0.005235435350120481
-0.008505697234144089,-0.005259620206825674
-0.008494885699881733,-0.0053004254608251655
-0.008397058611426329,-0.005263671314237653
-0.008307515478529778,-0.00524622524654289
-0.008310573787500693,-0.005294062847591396
-0.008308715452786568,-0.00531910473917621
-0.008221967993896871,-0.0052874618523508264
-0.008154904276476221,-0.005264001203105114
-0.00817308284369041,-0.005312032590746919
-0.00818759398309819,-0.005349539797699081
-0.008116074949399508,-0.005320334476720918
-0.008065375818007136,-0.005301855984773882
-0.008090599742676853,-0.005336331924612158
-0.008116629827901125,-0.005376696422544611
-0.008053648323168067,-0.005352529566591658
-0.008011771092551507,-0.005295598893925986
-0.008069877852104453,-0.005341948363574505
-0.00809326268361652,-0.00537096230989438
-0.008040266522636955,-0.005346148143744947
-0.00800500190393402,-0.005307178516114722
-0.008055091639219655,-0.005341532525540508
-0.008095096793785582,-0.005377165894435565
-0.00803480955344259,-0.005342778830354752
-0.007998573641330208,-0.00530322582571273
-0.008042754069530958,-0.0053296756730763966
-0.008078455159793258,-0.005367690721755307
-0.00802897941243454,-0.005335843119916322
-0.008000993899400946,-0.005292288005223654
-0.008043401922315325,-0.00533494443082618
-0.008084916412337757,-0.005368155279287374
-0.008027989235776608,-0.005338820393698663
-0.007995968877566635,-0.0052964973193981
-0.008042378207787486,-0.005340027649475486
-0.00808544521124914,-0.005373300358680803
-0.008031541592559522,-0.005328097623478666
-0.007998110569819526,-0.005295761293651443
-0.008042259181287549,-0.005328537910996889
-0.008077667794186618,-0.005368732648584036
-0.008031690220300251,-0.005332710291711804
-0.007999250459211977,-0.00529641483352132
-0.008051221061695124,-0.005333108660437458
-0.00808610560120283,-0.005371471690653079
-0.008030404067206984,-0.005319404965429288
-0.00799210426352663,-0.005298425761031062
-0.008034898676906549,-0.005343296803471452
-0.0080797980792811,-0.005375360526647885
-0.008026969644705466,-0.00532530557866022
-0.007988093052236462,-0.005293254821464918
-0.008037913266982073,-0.005334136614023313
-0.008075341712768948,-0.005361691223389946
-0.008021899830242228,-0.005331076486193935
-0.007986132602400099,-0.00529334506701208
-0.008040963849851418,-0.00532062627510349
-0.008078310208552548,-0.005362307196885845
-0.008024711965291824,-0.005319974747827472
-0.007992112563751642,-0.005289693422580164
-0.008042551557662453,-0.005323874604333473
-0.008073246828316689,-0.005353523346160396
-0.0080173989761159,-0.005312045128374218
-0.007985126419270011,-0.005278491166850092
-0.008036676294103802,-0.005318196322887409
-0.00807290773698273,-0.005347705914844277
-0.008029553209044605,-0.005319738526585157
-0.007995453071577775,-0.0052745623361429425
-0.008048476210674565,-0.005313221255869087
-0.008097413831323216,-0.005362831759230221
-0.008061323151877806,-0.005315924766022937
-0.008039649104333003,-0.005284997687232619
-0.008110929741264533,-0.005341997893795622
-0.008149132825173279,-0.005369576388512086
-0.008115360644951988,-0.005333419411792614
-0.008089395102703458,-0.0052978122394534985
-0.008140197218509662,-0.005349044837869286
-0.008171932863823042,-0.00537757720166245
-0.008119533573975327,-0.005345518029463656
-0.008088149487723044,-0.0053035366054650325
-0.008135880327705073,-0.005332249190037292
-0.008173025838416227,-0.005369701926102967
-0.00812473780256159,-0.005331444031214537
-0.008084333657024352,-0.0053007964769823295
-0.008151652640166443,-0.005342913421594828
-0.00818048665442709,-0.005368146576296051
-0.008128923616212114,-0.005337762960136798
-0.008098799006425558,-0.005300935979898614
-0.008148674293711751,-0.005331882700101505
-0.008181711568542145,-0.005375526232738025
-0.00814224169837636,-0.005344150096260481
-0.008108468118090186,-0.0052930150396358145
-0.008151846813745365,-0.005337410049312668
-0.008195776389614641,-0.00537177453476398
-0.008109486921884642,-0.005317645700503466
-0.008083846554222592,-0.005287575571105246
-0.008130322711767682,-0.005322029287836122
-0.00817961058432655,-0.005361783267129353
-0.008132610703148569,-0.005323679003121964
-0.00809352892424602,-0.0052908416475748
-0.00814920913224181,-0.005342368283055527
-0.00817611579863661,-0.005360088119091529
-0.00814538137629019,-0.005332488280030374
-0.008080771592119212,-0.005292516455078017
-0.008120758504916397,-0.005334224718597877
-0.00817234651214033,-0.005381014766677375
-0.00812163281950456,-0.005336061653767195
-0.008084879630448868,-0.005293891356496777
-0.00814313448384106,-0.005341043559764494
-0.008174169043674434,-0.005366568898252005
-0.00811440460564544,-0.005329749961622227
-0.008085834343330395,-0.00527829370228605
-0.008122583564926877,-0.005320284915378978
-0.008159079928313034,-0.005346874481518264
-0.008107871260475475,-0.005307799293409122
-0.008080525127247613,-0.005276581818572844
-0.008116229535857378,-0.005307534109962509
-0.00814658729956174,-0.0053361580308553674
-0.008095796175705976,-0.00530854154644452
-0.008059615427229596,-0.005273434458665786
-0.008111647391579635,-0.005299507304537026
-0.008148925496929965,-0.005338420312445688
-0.008093255210214673,-0.0052985786104557024
-0.008064744384079092,-0.005267871965395448
-0.008106542114830691,-0.005305716015075683
-0.00814537625135894,-0.005346560433264345
-0.0080870596031458,-0.005312099658932362
-0.008062815572358465,-0.00526328520398699
-0.008107062688087802,-0.005299042684209403
-0.008136699383682947,-0.0053360687316529485
-0.008086352948245832,-0.005305455808892827
-0.008050537958388598,-0.005261089842541426
-0.008103343945871672,-0.005304526027759831
-0.008143910002590706,-0.005330528464443873
-0.008092793936065896,-0.005299225900942426
-0.008065037668362826,-0.005255975337421777
-0.008109675894022157,-0.005310139014528632
-0.008146545559708819,-0.005324061027774192
-0.00810117655348382,-0.005278955400541532
-0.008071263312321015,-0.005246918875833164
-0.008124025408503367,-0.0052923417666798245
-0.008156404453393426,-0.005321252642503015
-0.00810656703728007,-0.005279254525260739
-0.008072129756489296,-0.005235960612350099
-0.008125278368173712,-0.005282422586984266
-0.008153519548810906,-0.005327460234463851
-0.008099236494570478,-0.005289108111892132
-0.00807492332474935,-0.005251000728068208
-0.008127548631995945,-0.005293422185953782
-0.008160908210399115,-0.005325683568553652
-0.008113251134771354,-0.0052968380597579025
-0.008085250192807434,-0.0052461023912100755
-0.00813374291887676,-0.005287444316683043
-0.00817838887427156,-0.005313477679713116
-0.008120898578884074,-0.005287828181207048
-0.008090351425216519,-0.005241911760555461
-0.00813876395512428,-0.0052900020337645565
-0.008178609326684145,-0.005303553517458078
-0.008121301744308074,-0.005277864459347285
-0.008099191852174616,-0.005236582065995602
-0.008145394298204942,-0.005279990615949358
-0.00817894814896932,-0.0053023160627255865
-0.00813380835024463,-0.005277094339701405
-0.008096126315178923,-0.00523743032603249
-0.00814592235448582,-0.005285265129677893
-0.008180425436958473,-0.005301022684970498
-0.008130421944593211,-0.005271537618941388
-0.00810275477344987,-0.005242189960198167
-0.008142376242520741,-0.005275650588314918
-0.008180067771586079,-0.005316712504023769
-0.008127146683705387,-0.0052692696758317205
-0.008097670819388213,-0.0052372001583505775
-0.008147689821660963,-0.005273598644441465
-0.008184119522149213,-0.005310399548010518
-0.008139368905371234,-0.005279929365563391
-0.008161662519585874,-0.00523467161378575
-0.008148015747319952,-0.005283416773580649
-0.008267320472107932,-0.005307572565429591
-0.00818977111798396,-0.0052708334456531445
-0.008098890721293175,-0.005244383687207736
-0.008255561703203834,-0.0052837560178046585
-0.008361694573401631,-0.005322744113975254
-0.00839286859746564,-0.005296042174375278
-0.008356239663830303,-0.005280429285383356
-0.008482986589249964,-0.005311961366128829
-0.008570451517535792,-0.005339433294018756
-0.008561561122135825,-0.005297999782065549
-0.008562489744474787,-0.005282187231094009
-0.008670052417429039,-0.005298944524840634
-0.008695176633036745,-0.005355358391340171
-0.008619978629610949,-0.005300759186052252
-0.00861483340176905,-0.00528010451246624
-0.00863891053911413,-0.005314760134452097
-0.008651163716306514,-0.005335501342570369
-0.008576446114707415,-0.005285219097989398
-0.008506033017913573,-0.005244990745401616
-0.008526487171045457,-0.005287598310575195
-0.008509186919769596,-0.00530738010141201
-0.008413100814099482,-0.005255743181641366
-0.008325335000172771,-0.005231118643904055
-0.008336649273967515,-0.005270852062774838
-0.008320066400252093,-0.005285922700472113
-0.00823004948771248,-0.0052340154068527545
-0.008153094517889035,-0.005195474923399314
-0.008162269149831463,-0.00521916810336335
-0.008156410060604385,-0.005253088523378333
-0.00807380964557857,-0.005216185251648273
-0.008010886285385696,-0.005191369167117216
-0.008031039667833475,-0.005204561862174582
-0.008046323542133778,-0.005229422017454427
-0.007969644293690358,-0.0052105137756667365
-0.007937243369108775,-0.00518104711169021
-0.007973344130787872,-0.005204470221392501
-0.007996430322462212,-0.005227416909853837
-0.007944958832429582,-0.005193007656183223
-0.007914648430339444,-0.005159694829927695
-0.007961100330455806,-0.005197006138401198
-0.007993082336340706,-0.005228024721146898
-0.00794643664840718,-0.005194930117594841
-0.007910641082809667,-0.005163075744466167
-0.00796407241649981,-0.005192928037873508
-0.007997899147277231,-0.005236650695114371
-0.007935606406898112,-0.005191461453097389
-0.00790318506988728,-0.0051520967017052435
-0.007957474805287282,-0.005188791282222157
-0.0079874722211996,-0.005240479549613486
-0.00795062649557037,-0.00519057592270654
-0.007915272345190428,-0.0051512504627516656
-0.007959685850350156,-0.005189438765261718
-0.007994777106375589,-0.005239192734462049
-0.007952943341468103,-0.005183125737163866
-0.007907107337538617,-0.005148665921928905
-0.007964623556515112,-0.005202232891535774
-0.007994480700977587,-0.005222183006055631
-0.007945527755674791,-0.005177235014025927
-0.007912451664223458,-0.0051528663153072975
-0.007958006344556463,-0.005197634837492688
-0.007994553062742714,-0.005224467936142479
-0.007941547712679171,-0.0051894487637186675
-0.007901747559666434,-0.005155316089920783
-0.007959023849269477,-0.005197005776520788
-0.007998180362787566,-0.005220741093747697
-0.007941485239708838,-0.005194615714840932
-0.007914073434726082,-0.005158659607135881
-0.007966123744753952,-0.005179246074883814
-0.008000920367446842,-0.005219332723503014
-0.007947383484920672,-0.005183741351015316
-0.007924433214702185,-0.005146274563817913
-0.007971367424694379,-0.0051835912237199145
-0.007991637291762386,-0.005216461635409096
-0.007926472104984194,-0.005200477401325799
-0.007890393250903531,-0.0051718365145736606
-0.007934979547709588,-0.005208089539673917
-0.007960164472684883,-0.005262131483722111
-0.00791038539229223,-0.005212860417860012
-0.007872903732483564,-0.005162273549862494
-0.00793234414318856,-0.005212360474312434
-0.007955030534006455,-0.005253725493397024
-0.00790832169904949,-0.005212769573461915
-0.007880120290874136,-0.005181831509406837
-0.00793036692651634,-0.005218157864055336
-0.007960965967864496,-0.00525161266823361
-0.007911223784820549,-0.005207388074299763
-0.007881040429714136,-0.005170824640876051
-0.007932050549141631,-0.005206374636021704
-0.007961160388835507,-0.005240730415544959
-0.007915741209000505,-0.005219376732907379
-0.007882377171963939,-0.005172558290413328
-0.007939266860613648,-0.005227403865610103
-0.007965286557247079,-0.005241269018231002
-0.007916017066131415,-0.005210931494923409
-0.007886395506031775,-0.005174980865487888
-0.007934269567081745,-0.005217167505075338
-0.007961642115095232,-0.005246568178405932
-0.007914747746025264,-0.0052014426598628255
-0.007884737336909897,-0.005182153349920151
-0.007935235771264511,-0.005205693446856424
-0.007963199490899709,-0.005242609347422972
-0.00791152278641073,-0.005210904045849931
-0.007878186964562986,-0.005166931340373834
-0.00793235091449984,-0.005202017895813819
-0.007967851276434526,-0.00524258735001227
-0.007917188768823552,-0.005204311834201767
-0.007885265556761695,-0.005168457180082968
-0.007938653763324678,-0.005202370816108286
-0.007972001188143717,-0.005240975096685305
-0.007921612672692806,-0.00519728794507188
-0.007887237142257704,-0.005167194796429252
-0.00793478362049964,-0.005200342570352537
-0.00796632962598655,-0.005230302479857445
-0.007914094524112507,-0.005196235477647892
-0.007888276368313891,-0.005168675351512357
-0.007933323441000605,-0.005199326766467728
-0.007970770994797111,-0.005240382920711015
-0.007920294473300601,-0.005210768615147376
-0.007884142822403132,-0.005161077231637369
-0.007931412377282749,-0.005203684978871362
-0.00796462210733279,-0.005244078443241619
-0.007917810444141915,-0.005211734838229307
-0.007886915951298033,-0.005168637723427619
-0.007933262227091493,-0.005209096306150478
-0.007961510060534693,-0.005247190323202077
-0.007912370351532683,-0.005203634475353136
-0.00788260964631645,-0.0051817704675684905
-0.00794047430332387,-0.005204617643529358
-0.007974738046576162,-0.005234791481558138
-0.007918748300939794,-0.005205188277379128
-0.007883948099521742,-0.005175407363139449
-0.007940945030051043,-0.005202241620631627
-0.007969661168974797,-0.005230694298337354
-0.007924426055307148,-0.005207284707105462
-0.00788488402009203,-0.005166363866465917
-0.007942088033464361,-0.00520513253909957
-0.007972238477853359,-0.005233631550091477
-0.007921616850502746,-0.005203182792504307
-0.007887409465181731,-0.0051797316199782475
-0.007935097865991326,-0.00521729607733998
-0.007974572249692601,-0.005236141820276195
-0.007925677837737791,-0.005223355161426504
-0.007890718751340692,-0.005172309507087453
-0.007948627983283638,-0.005206686533937041
-0.007974819833016225,-0.005237050891677406
-0.007927413502563829,-0.0052110282632371755
-0.00791439039063539,-0.005166288082800842
-0.00800557679874726,-0.005200959004361187
-0.008088537685059106,-0.005253731713228991
-0.008063967846976374,-0.005216616270966372
-0.008064658629728804,-0.005206859967311888
-0.008163128669586591,-0.00523238729234272
-0.008284739057519457,-0.0052532851699324
-0.008255870016582916,-0.005243438417046424
-0.00828266655529658,-0.005209729230279722
-0.008422253164345297,-0.005246050118522615
-0.008528990983105198,-0.005279109612661233
-0.008535013039647843,-0.005239789843257928
-0.00853818505025757,-0.0052042407044659905
-0.008620186998053125,-0.005245213281379636
-0.008669085690804245,-0.005266114188843397
-0.008612030697819005,-0.005235928073475122
-0.008596089392763795,-0.00519112873066128
-0.008630995803893338,-0.005201397763477542
-0.008661968494452995,-0.005246883980475275
-0.008605974389433915,-0.005201466295187374
-0.008561541944423831,-0.00516936427925252
-0.008601694096925724,-0.005203517172661987
-0.008610410504944018,-0.005201862060146584
-0.00852475798100114,-0.005182628814954029
-0.00847963748627275,-0.0051533763296424465
-0.008503094926197764,-0.005192216137017997
-0.008512477280441121,-0.005213599382087613
-0.008455362749985809,-0.00518848799419012
-0.008405701789025787,-0.005153080191087981
-0.008445475146898198,-0.005190608161735376
-0.00846928053680765,-0.005216617227493698
-0.008411522954296032,-0.005189237240384638
-0.008374529637432829,-0.00515581618392983
-0.008412346252040771,-0.00519165596303316
-0.008438300692708787,-0.005209350440649758
-0.00837818811547416,-0.005178776221450485
-0.008341303227756478,-0.005152390495692067
-0.008388982561627846,-0.005184328621093589
-0.008412201853159157,-0.005208952052281538
-0.008361876672944708,-0.005178403332116765
-0.008330995744879454,-0.005146504351403034
-0.008367366208084464,-0.005181714753271195
-0.008395487672476852,-0.005214080598243477
-0.00834039117745625,-0.0051844547491418725
-0.008304031469756864,-0.005149744030104886
-0.00834898889299702,-0.005194671364930734
-0.008380132814398828,-0.005215246349475632
-0.008327146459201767,-0.005180466285077029
-0.008293548616998629,-0.005146060827703878
-0.008347917356078009,-0.00517878411909649
-0.00837337616808129,-0.005201617518972461
-0.008329852286617107,-0.005170384993996417
-0.008286673551504857,-0.005144717055494763
-0.0083374341712621,-0.005187844055781014
-0.008362096580608457,-0.005204587381472283
-0.008314133467366354,-0.0051734860752249345
-0.008281787906235566,-0.005151708819266776
-0.008324519050768144,-0.005178873716802116
-0.008353900382975918,-0.00520495511386078
-0.008307739860161038,-0.005176447619430803
-0.008272132115547125,-0.00514926844925393
-0.008318175689539459,-0.005182533236744171
-0.00835309325288454,-0.005212848184359416
-0.00830010748133894,-0.005168171328817802
-0.008260854826809279,-0.005143766082734183
-0.008300994939843981,-0.005181150542738882
-0.008338288949126211,-0.00521264470583523
-0.008291021002811849,-0.005171140129202067
-0.008262738322544932,-0.005130821519335585
-0.008314363350084297,-0.0051773015006673345
-0.008340894988991892,-0.005209149369052341
-0.00829071863202424,-0.005166347963370668
-0.008252504908074552,-0.005141924279767822
-0.008298936415590505,-0.005176941686216052
-0.008332858393678226,-0.00521628557756548
-0.008279482147700107,-0.005175730270345016
-0.008251098027937803,-0.0051456378490845785
-0.008301279728680146,-0.0051808441312892585
-0.008334876286693643,-0.005204525740580725
-0.008281480628292127,-0.005176587621526136
-0.00824153926960982,-0.005148207303586273
-0.00828417431345901,-0.005185809745325255
-0.008320914769522188,-0.005214623628899471
-0.008257260019369148,-0.005189512018899359
-0.008226457969359403,-0.005149646572087738
-0.008277936596393674,-0.005178931915570753
-0.008279031683103802,-0.005237668516884858
-0.008210723475901613,-0.00519095340382147
-0.008148715653112665,-0.005178953785741587
-0.008178082352796389,-0.005238310910501941
-0.008184156253159006,-0.00526750325543867
-0.008105918263077095,-0.005232176420069277
-0.008065511885360718,-0.005217822800103188
-0.008108143976860474,-0.005245023165610941
-0.008133849163674418,-0.0052883597136604244
-0.008078998858404353,-0.005241605727270404
-0.008057679241519147,-0.005218889689697309
-0.008101715240860584,-0.005256294894965103
-0.008139941904520732,-0.005284081055864487
-0.008079732961201772,-0.005253160551132877
-0.008054734204511988,-0.005218982302643907
-0.008098421203653583,-0.005260486670232802
-0.008137749501670418,-0.0052776932543526665
-0.008087306006932898,-0.005256199678698688
-0.00805372290459069,-0.005222829276742326
-0.00810752996865867,-0.0052511170613188584
-0.008136016126952814,-0.005279473202370179
-0.008092559052832703,-0.0052438858187903335
-0.008064417025749395,-0.005215940673745097
-0.008116010454614747,-0.005240199608359285
-0.00813920076341787,-0.005268039187784524
-0.008089927914580951,-0.005249392759215245
-0.008056677646550508,-0.005212306675813186
-0.008108079904845468,-0.005255706054195803
-0.008140166389704644,-0.005276557271739246
-0.008088768593672205,-0.00524537889611507
-0.00806277975741061,-0.005206044265189042
-0.008116763781479736,-0.00524599443488472
-0.008135022117111377,-0.005282510383707158
-0.00808687510254533,-0.0052365037049625675
-0.008056238679803606,-0.005224884663194861
-0.008108327543468297,-0.005246675639358361
-0.008140217814348032,-0.005280242696470706
-0.008088582154216463,-0.005240098800590413
-0.008058574686872367,-0.005216220701456338
-0.008110286945555273,-0.005251883253791296
-0.008142151504272731,-0.005280817866748558
-0.008090604343578342,-0.005252267055616883
-0.008050725327807574,-0.005227523699264763
-0.008107963107271448,-0.005257441958836084
-0.008113445564947511,-0.005278758028306613
-0.008043288483974204,-0.0052409179593211125
-0.008009557221150397,-0.0052342923434091455
-0.008059277362052945,-0.005258166292358382
-0.008089700057072087,-0.005279317971769788
-0.008035934955270352,-0.005239809246912517
-0.008005598456894419,-0.005223584240053186
-0.008058919975619683,-0.005255742652805204
-0.008083496489969585,-0.005288409884731223
-0.00803698618679608,-0.0052499518497812645
-0.008006793641742106,-0.0052201634472075166
-0.008061107808495692,-0.0052599812244171
-0.008089430647049645,-0.005273025134962305
-0.008039623224246452,-0.0052430634804496
-0.008012446880426077,-0.005208706093891456
-0.008066279786146368,-0.005243755886654669
-0.008097392421472609,-0.005288972747771104
-0.00804101430280468,-0.005249571513042877
-0.008007947548948584,-0.0052139263355379184
-0.008050897471188652,-0.005244911493765577
-0.008088241695166726,-0.0052697000792917975
-0.008033827511114696,-0.005248231917916043
-0.008014103305935152,-0.005219612446323997
-0.00805530508746269,-0.005258174910965908
-0.008090339930757176,-0.005288410695231541
-0.008040371292492524,-0.005255031901251644
-0.008020334213721636,-0.005233444158624534
-0.008055165919871236,-0.005257998608391968
-0.00810045232667579,-0.0052791433513659685
-0.008044369791427157,-0.005253643526322883
-0.008039235537466495,-0.005217157067411236
-0.008098142293898708,-0.00525206123282414
-0.008090194937557482,-0.005281764175268644
-0.00804116086654114,-0.005245559999612307
-0.008094447171461714,-0.005228083494429498
-0.008078417989979709,-0.0052725928956706795
-0.008134738479277709,-0.005295151114881008
-0.008127636566815302,-0.005249021083250126
-0.008100250876635013,-0.005232783281944588
-0.008169456834167753,-0.00531537073644176
-0.008243452004110679,-0.005298268363903049
-0.00825492616571735,-0.0052367785491535075
-0.008289922664327007,-0.005205579737847543
-0.0083763451125848,-0.005216282584473679
-0.008446254361629334,-0.005201468023072375
-0.008433142225928898,-0.0051602689443516776
-0.008411376955484844,-0.005107340760552465
-0.008465157485618463,-0.005117997359215027
-0.008492694228670461,-0.005132730712859017
-0.00843534264317175,-0.005099472853714188
-0.008389815349253208,-0.005058194833019659
-0.008427796384038497,-0.005097801756843347
-0.008435493176450351,-0.0051416859378441634
-0.00836675586421304,-0.005091544919921149
-0.008318974388544134,-0.005066951829365999
-0.008349201108328966,-0.005115354930811793
-0.008355078824386982,-0.005130898380107561
-0.008296923468225546,-0.005106125851814285
-0.008244894421134852,-0.005073729987443038
-0.008284646676015806,-0.005112715830738122
-0.00830222724929439,-0.005149115356002138
-0.008239401098649108,-0.005102055541319553
-0.008201888469986368,-0.0050769776938148275
-0.008248825061488739,-0.005111764267697792
-0.008264071882125535,-0.0051426858724496274
-0.008210999133020645,-0.005115785317897963
-0.00817311583570469,-0.005084394431539199
-0.008208175941664883,-0.00511245192063992
-0.00823296092732948,-0.005151307884609646
-0.008170953457845315,-0.005111758636632111
-0.008143821231521178,-0.005086513390228274
-0.008185450501569654,-0.005116135396057323
-0.008212089965454106,-0.005151351607701525
-0.008159101702006897,-0.005116926354488235
-0.008118905344571357,-0.005089227023157315
-0.008168277967182102,-0.005124567400725853
-0.008189259589261541,-0.005152906969703205
-0.008139605713574097,-0.005119007763045493
-0.008108638565532043,-0.00509258493430212
-0.00815998162092832,-0.0051242355225184335
-0.008180589795288015,-0.005148012439226466
-0.008128596129332814,-0.0051187015506285365
-0.008105711818742164,-0.005083363939760126
-0.00814863457057894,-0.005119457869694138
-0.008172779936214564,-0.005136077584416287
-0.008123083398582857,-0.005116217551077196
-0.008087846478853761,-0.0050806079013457645
-0.008142585237617904,-0.005121507990956492
-0.008162879403136382,-0.0051582917938457545
-0.008108984287341211,-0.00511739906081386
-0.008077508881277212,-0.005094989051536516
-0.008128684199222448,-0.005121255064407311
-0.008152366437195017,-0.005160725488927393
-0.008108331982120204,-0.005106815606433024
-0.008076838404182028,-0.005084393825614131
-0.008125250643499754,-0.0051199616473659865
-0.008148513820035484,-0.005150140282859259
-0.008099007026221877,-0.005113397269604615
-0.008066462159516622,-0.005072656232583465
-0.008119116167105927,-0.005111098817406677
-0.008148136843198744,-0.005152532210402235
-0.008103007126653941,-0.005113939201059167
-0.008067857842830099,-0.005092752402042931
-0.008116520118637203,-0.0051224032423127465
-0.008148972309590745,-0.0051658783053745595
-0.00807928318077563,-0.0050994675875876295
-0.008051892097418994,-0.0050551132821835335
-0.008101942846923919,-0.005084423822055328
-0.008133913201869973,-0.005104219317422319
-0.008079532517941001,-0.005046955935515077
-0.008054018281897116,-0.005011007193159332
-0.008104676005115283,-0.005039335014683751
-0.008133318347132663,-0.005058530725671491
-0.008079202753299427,-0.005042732074784674
-0.00804801854014999,-0.00501067829647263
-0.008102847507176254,-0.005048321110145891
-0.008132354422676449,-0.005066901878086708
-0.008082233800173097,-0.005036545208356903
-0.00805453424363088,-0.0049969084997205345
-0.008109403609249374,-0.005035413251953216
-0.008134367244931513,-0.005064904451430518
-0.008084478394844146,-0.005030511960338404
-0.00805517247933171,-0.004996645140642287
-0.008108085831410376,-0.005041538791853515
-0.00813305252757584,-0.005063686871888853
-0.008074158376594347,-0.005040485064461197
-0.008049843516035795,-0.004999935638157577
-0.008102583567336263,-0.00504816052046955
-0.008128401996948578,-0.005069603740725709
-0.008081782161373174,-0.005041356403103691
-0.00804859477998735,-0.005008311919813412
-0.008097424368775323,-0.005051156747029906
-0.008127983221512453,-0.005070903470245072
-0.00807571882194844,-0.0050350187274654625
-0.008048861403203572,-0.005002511873675182
-0.008104694420862125,-0.005047189239065467
-0.008137182643135104,-0.005073239989884475
-0.00808627722719037,-0.005040410179123757
-0.008057819404739134,-0.004999280121539204
-0.0081010533054298,-0.005036615588603491
-0.008140019680020238,-0.00506558256684635
-0.008088678736560068,-0.005027942471204837
-0.008055883124732504,-0.0050075265399451415
-0.008104416264632488,-0.005041946007411751
-0.008134331494504541,-0.005067325086578786
-0.00808385643962163,-0.005034816054817679
-0.00807184900172048,-0.005002467204724507
-0.008127671722610924,-0.005041259533315498
-0.00815855520834028,-0.005071107807048043
-0.008088308796963576,-0.005035147167750505
-0.00810303733175948,-0.005006307390928947
-0.008150811929342553,-0.005040182309086503
-0.008211959131372758,-0.005061410176614559
-0.00816154501726824,-0.005040551631147425
-0.008127951471616832,-0.004992555184112341
-0.008279374930805192,-0.005025960018202549
-0.00830955950890865,-0.005042157736745038
-0.0082921020335178,-0.005028584920887565
-0.008348209263330604,-0.004969074796742303
-0.008465523668983612,-0.005013444208414759
-0.008524783236851543,-0.005071990194821339
-0.008525197256328403,-0.005045685526727553
-0.00854613661231052,-0.00501814215843925
-0.008640551677826928,-0.005079812823136161
-0.008681174371776295,-0.005123094052350302
-0.00864526395457905,-0.005107525080468478
-0.008601025271705738,-0.005101942781010467
-0.008643451680906194,-0.005155883742546507
-0.008644390558973697,-0.00520466127986827
-0.008573341162197101,-0.005189230445560389
-0.008511914652862815,-0.0051747824323210975
-0.008558822021026402,-0.005234245849248741
-0.008545179532574176,-0.005276796399267761
-0.008477147407081411,-0.005235987589240669
-0.008419953706282717,-0.005221869623975688
-0.008452854637397342,-0.0052602970662701184
-0.008457440216354634,-0.005277764508242222
-0.008383423603938922,-0.005229923959358546
-0.00832940470695838,-0.0052057152460524905
-0.008375204281176557,-0.00523790968111199
-0.008386082931068073,-0.005277943351549563
-0.00831532531911492,-0.005223725344137856
-0.008272277782099808,-0.0051984525799750585
-0.008318590582947785,-0.005238174395532149
-0.008338486870070052,-0.005260928052747457
-0.008280727947689486,-0.0052139065936734055
-0.008235482286507567,-0.005194992990430886
-0.008283378618494841,-0.005225035451598196
-0.008300897742273747,-0.005254281489645913
-0.008242787716223986,-0.005210945667896186
-0.008211672621640635,-0.005192384646217541
-0.008262731283013263,-0.005211465777659743
-0.008274757061428557,-0.00527314678335153
-0.008227907177164116,-0.005222444269456162
-0.008195794370213911,-0.005197403371775196
-0.008245744906728896,-0.005236116905737036
-0.008259807617271466,-0.005258454744769196
-0.008208141322511782,-0.005220794001106282
-0.008181120921488566,-0.005176121369355058
-0.008223009384752317,-0.005229286791348642
-0.00825350168285609,-0.0052567986018962655
-0.008206832746414391,-0.005213236215857918
-0.008169529864668556,-0.005189916225277327
-0.008232905027369513,-0.005224141400656354
-0.008245079736963742,-0.005255860730266442
-0.008190970902503564,-0.005212882821303683
-0.008170165062865139,-0.0051852422644936315
-0.008210785848685297,-0.005221870194143832
-0.008237651819106859,-0.005260211339390064
-0.008186077460358637,-0.005220886268788584
-0.008160157250372009,-0.005191707955561625
-0.00820659363709036,-0.005234880647325938
-0.0082308968165298,-0.005252650325524332
-0.008176868540499739,-0.0052148011305682114
-0.008142969055407779,-0.00518727550453862
-0.008203281454223197,-0.00522996170365294
-0.008229246720722842,-0.005253523513736287
-0.0081844283800909,-0.005220224008287614
-0.008142088684561663,-0.005184164055874913
-0.008197448396431991,-0.005222526665046339
-0.008215352539973533,-0.005244508132077957
-0.008162315490894896,-0.005219887588128014
-0.008137630034751325,-0.005188462723116708
-0.008186318535604475,-0.005220534498437287
-0.008210970049954894,-0.00525758240869425
-0.008159236325905428,-0.005210827763881588
-0.008128649606759982,-0.0051845035868370295
-0.008188698659177722,-0.0052237905890238166
-0.00821013443725708,-0.005242478606327758
-0.008153559383779279,-0.005216580308398281
-0.008120114216482018,-0.005187982053977586
-0.008179367642773144,-0.005225960292259128
-0.008209749758289284,-0.00525529982354401
-0.00815394629147484,-0.005223851387106073
-0.008120733350577444,-0.005188295482156771
-0.00816956969904912,-0.005233673638213885
-0.008197887106519268,-0.005245607388036334
-0.00813929393005967,-0.005232606988432842
-0.008082644642733682,-0.005213655765680571
-0.008106135038043001,-0.005260959735448688
-0.008100522467918782,-0.0053033314652257265
-0.008030781643524852,-0.005284621133217852
-0.007974563086110786,-0.005281133912376191
-0.00800301801110721,-0.0053306573245715805
-0.008009265002682989,-0.005360423975198308
-0.007929062846136297,-0.005329658428748148
-0.007882090921551916,-0.005323080792705224
-0.007927456542392065,-0.005370206702447358
-0.007943497391194923,-0.0054121353189017065
-0.007882833356962202,-0.005386234369385059
-0.007848489889374767,-0.0053613790206714
-0.00790220722304385,-0.005415598794120556
-0.007927081060076642,-0.00543986215758708
-0.007878507691196036,-0.005396681327092483
-0.00784628438352789,-0.005368045063563984
-0.007901702958173589,-0.005417634680675787
-0.007929134377673135,-0.005434540296243879
-0.007883644669023984,-0.005400249913090132
-0.007854610788756376,-0.005361063969945233
-0.007901361676003625,-0.0054042253551633045
-0.007932343784708742,-0.005438094790236405
-0.007882406452496311,-0.00538741137287951
-0.007848034583596272,-0.005361254103677965
-0.007901898377143179,-0.0054031357613360505
-0.007931276518257549,-0.005435310629739724
-0.00788515678057072,-0.0053853033636617606
-0.007852045341287726,-0.005358589500102689
-0.007897925902982779,-0.005389538503254934
-0.007926313599124787,-0.005416239702066979
-0.007889401206401992,-0.005388150979794312
-0.007859101469865477,-0.005365520187078188
-0.007914420992940634,-0.0053902837323509725
-0.00794055819671013,-0.005419257494360068
-0.007897254708468662,-0.0053907379920051625
-0.007864210910089197,-0.005355499189506592
-0.00791674634220199,-0.005391965787580154
-0.007948566112729608,-0.005429988330321158
-0.007893772722556354,-0.005376506388514972
-0.007869845863433037,-0.005362263738335462
-0.007925365910937105,-0.00540022939227142
-0.007955048982745521,-0.005429765564241112
-0.007891514483358633,-0.005379198908851542
-0.007868927583668087,-0.005345768133772856
-0.007923699739939817,-0.005396437657075097
-0.007954230519683438,-0.005427169930129585
-0.007900841893535635,-0.005375119663551362
-0.007876659389419978,-0.005355897926138839
-0.007928657890053427,-0.0053877119079654544
-0.00795954134683605,-0.005419366803991073
-0.007909718524031434,-0.0053704055816843925
-0.007877157234803762,-0.0053503000459083645
-0.007932157982017594,-0.0053817993559314055
-0.007957228654872249,-0.0054045505516100096
-0.00791018735213721,-0.005374132622638043
-0.00787882546055302,-0.005334493971100382
-0.007928544444646565,-0.00537783889642951
-0.007963725949359438,-0.005402804153162721
-0.007901911272140181,-0.0053753079082133936
-0.00786557829303549,-0.005347411182661168
-0.007929754126116913,-0.005398104349937133
-0.007953644462185416,-0.005424679893777862
-0.007894330605463363,-0.005379978063408142
-0.00787079809280653,-0.005338809430546026
-0.00793089488961416,-0.005388081401769205
-0.007948806019611013,-0.005418413577000388
-0.00789662781815022,-0.0053742441314665775
-0.007867927554531591,-0.005345677671430829
-0.00792763986452613,-0.00539028310863975
-0.007962884072721122,-0.005422039919852162
-0.007905249829378675,-0.005366719070749904
-0.00787990312034831,-0.005346769795190621
-0.007932449342886838,-0.005381954454700068
-0.007960344825125377,-0.00541693280861529
-0.007916458644656559,-0.005373191689707129
-0.00788872637875975,-0.005360865473864941
-0.007937599362411216,-0.005381589325713996
-0.007966722164248563,-0.005427760333438658
-0.007912668468359054,-0.005361868980873539
-0.007886787585952673,-0.005338824012278646
-0.00793650105194799,-0.005376379013869668
-0.007964698272477214,-0.0054120018862383965
-0.007914702116245046,-0.005363794669967014
-0.007881128421210758,-0.005338443173906469
-0.00793520642173882,-0.005380720346417249
-0.007956535204484024,-0.005409990377471308
-0.007909604176533677,-0.005372928905686345
-0.007883748702215717,-0.005342315561004852
-0.007929825742808478,-0.005383097469559946
-0.007964868043063398,-0.005406496962781804
-0.007909017463167647,-0.005373968535243268
-0.007880300478204384,-0.005344602029814197
-0.007942972712284325,-0.005379832611149398
-0.007964558442760556,-0.0054121115156924296
-0.007914210899303052,-0.005366971415155172
-0.007891994744265409,-0.005338451479972701
-0.007938526756047634,-0.00538623833901526
-0.007969585050192594,-0.005408215482174058
-0.007918875847906025,-0.005366545213064833
-0.007888875587414843,-0.005340999438592283
-0.007938307454428098,-0.005381121083999446
-0.007968690245169838,-0.00540515738740057
-0.007910833413149089,-0.005362968632444779
-0.007887316440373722,-0.005345828765740606
-0.007946898715235818,-0.0053905081751694445
-0.007971708622170287,-0.0054000599710292575
-0.00791518435345797,-0.0053689691453916
-0.007886568690766635,-0.005366196607254446
-0.007971770375225442,-0.005368449418374476
-0.008015503899029802,-0.005390172309420342
-0.007997381687489619,-0.005356943808426771
-0.008001310731669325,-0.005325369090255579
-0.008084971985182238,-0.0053607002847071835
-0.00812038658576863,-0.005369286925190041
-0.008113641863215977,-0.005322440106677351
-0.008109439553226452,-0.0052808293005481765
-0.008188423864813499,-0.005312608436019918
-0.008244701617925955,-0.005330677713023472
-0.008208683109421886,-0.005269274601572569
-0.008213671393770633,-0.005217476310633662
-0.00828384362428806,-0.005245581163689695
-0.008315788900708306,-0.00524640546231399
-0.008270383916390959,-0.005183104056008634
-0.008261674345058149,-0.005146741233646235
-0.008323607547140606,-0.005170406259329872
-0.008357434011618968,-0.005183302403649049
-0.008306252156160179,-0.005133176006674732
-0.00827139101127752,-0.005112729422974671
-0.008318300574075888,-0.005154890695708591
-0.008335736062052339,-0.005174756307180848
-0.008278842359211447,-0.0051403656756030995
-0.008251984329928607,-0.005120499943806256
-0.008297044724332606,-0.005155020806611702
-0.00832949484576593,-0.00517661599916179
-0.008278655969817346,-0.005143109880347584
-0.008246957919308209,-0.005113049245398761
-0.008299628291137354,-0.005149103803774936
-0.008320950060338835,-0.005170237200417752
-0.008264812677505373,-0.005147418651428384
-0.008237338243142468,-0.005115026823169833
-0.008289482496366359,-0.0051448457433719485
-0.008319524378506506,-0.005182423141676038
-0.008264789537948174,-0.005134788859604336
-0.008224915976195166,-0.005111573212699694
-0.00828691169335918,-0.005153224964986898
-0.008310784606585055,-0.005177964023967131
-0.008261941991219981,-0.005136776302326473
-0.008233071485849857,-0.005106510052810206
-0.008290598458172574,-0.005147339965420518
-0.008311237392682042,-0.0051772074010018
-0.008256485044119929,-0.005135016249524722
-0.008231319635200521,-0.0051168742609473865
-0.008283913320725337,-0.005150247149319216
-0.008304396579308135,-0.005174655706069435
-0.008247865546515113,-0.005134199077124338
-0.008227938380861789,-0.005119339957532955
-0.008280015038874627,-0.005155463599553023
-0.008301496248102036,-0.005180839785618381
-0.008243716109841008,-0.005132907413738862
-0.008222273286919391,-0.005118033575901765
-0.008275772811057852,-0.005156516739578457
-0.008296149361384132,-0.005172566308205544
-0.008239376108535985,-0.005136601007025125
-0.00820871854067445,-0.005112189301188656
-0.00827086387465427,-0.005163464683076065
-0.008287751184167344,-0.005180476071090623
-0.00823124269571059,-0.005139903037716707
-0.008203648115113578,-0.0051209061785505
-0.008260165048787634,-0.005155025616608172
-0.008282380182177966,-0.005183959265087956
-0.008228696876217429,-0.00515056158032137
-0.00819468774732097,-0.005121633802760294
-0.008252640453477416,-0.005163141822721597
-0.008274884584547969,-0.005198313613474628
-0.008214325713421537,-0.005159252701178039
-0.008174654155453012,-0.00511573336183524
-0.008233085116689047,-0.005171104197689134
-0.008260302390675416,-0.0052100188932693095
-0.008182959951649922,-0.005172836103602216
-0.008145109489310813,-0.005161762525680212
-0.008196123824959434,-0.005208684936013283
-0.008224341564401733,-0.005253849552117405
-0.008164088243402083,-0.005206782496031495
-0.00813577574530196,-0.005181371458256476
-0.008184432715798074,-0.005212729691021707
-0.008215625889761,-0.005238582541553867
-0.008160443369004912,-0.005203082441938164
-0.008125658096223742,-0.005182931596843167
-0.008188092844049092,-0.0052167739051774305
-0.008208949266373335,-0.0052543684884955345
-0.008150488531160252,-0.005209304768750737
-0.00812408551288584,-0.005181283041506447
-0.00817408888244755,-0.005224950580342225
-0.008199893379831244,-0.005246500111927031
-0.008146403351830006,-0.00520893217899113
-0.008121761375701243,-0.005176519750038999
-0.008181528634248704,-0.005217335103715896
-0.008199037403358221,-0.005248103141643228
-0.008140270390225227,-0.005199101689784391
-0.00810885632257304,-0.005182403669562723
-0.008177571095661813,-0.005225451720777472
-0.008199090886428886,-0.0052564992368171765
-0.008142622167989437,-0.005207592222228754
-0.008114268341796084,-0.005167895793699558
-0.008169831464344366,-0.0052208830710907235
-0.008202315459060139,-0.005238936569901337
-0.008142342391767796,-0.005209467384233611
-0.0081134567605857,-0.005166199450840969
-0.00816797211339035,-0.0052260657854181145
-0.008198106932008363,-0.0052449390873781235
-0.00814190625491491,-0.005205169076416963
-0.00811245062348539,-0.005177499364063645
-0.008183402039148503,-0.005232251116173739
-0.008195000672505537,-0.005256859138875157
-0.008135422171621566,-0.005207644443578378
-0.008106495753452025,-0.005178970187135327
-0.0081709461336209,-0.005225859670269022
-0.008187511906241458,-0.005248703199324114
-0.008134335952358787,-0.005210480319743792
-0.008114418137629918,-0.005188160770981418
-0.008163688136594262,-0.005222921758492009
-0.008187375889205813,-0.0052486439105125715
-0.008134306953919002,-0.005212739717814027
-0.008110865473436903,-0.005179984533354564
-0.008167264840158343,-0.005223536260629182
-0.008187218094795942,-0.00525276953194324
-0.008138779136427606,-0.005213215954079025
-0.00811095159556789,-0.005188525209181132
-0.008170305526776302,-0.005230114965826318
-0.008187591088484259,-0.005261448447682851
-0.00813261329120118,-0.0052042047849176565
-0.008108128974852965,-0.005182521985003902
-0.00816503107513606,-0.005228343947280807
-0.008184101441233714,-0.005255496699144613
-0.00813579180063993,-0.0052115765481291765
-0.00810589325332566,-0.005189087595290328
-0.008168649949907071,-0.0052297838621774605
-0.00819503640005003,-0.005258986617157205
-0.008136899242107464,-0.005209972816120254
-0.008135910746473756,-0.005183951258055964
-0.008180354302571094,-0.005228338044413665
-0.008211332677993148,-0.005253658299891721
-0.008207951326936696,-0.005207084809361008
-0.008114059371209535,-0.005193845359898116
-0.008288275908941899,-0.005232269963935006
-0.008247307282636906,-0.005268729976496664
-0.008166418159850527,-0.005211293852169004
-0.008252629922439362,-0.005207146835778214
-0.008446718828477043,-0.0052233137278828055
-0.008457240809529917,-0.005255610032876027
-0.00842821108292012,-0.0052203683280295345
-0.008510755316386263,-0.005194581846875119
-0.00861832648592585,-0.005225884723525032
-0.008669008801519688,-0.00525561619070576
-0.008625807663015765,-0.005223192647284164
-0.008621641205462742,-0.005193685584639296
-0.008656589202580786,-0.005230016198419562
-0.008694390480180125,-0.005236316513053869
-0.00860565966985696,-0.005200745040968393
-0.00854886705147514,-0.00517910120308708
-0.008571173042768217,-0.005228926985821414
-0.008559115272664347,-0.005233536620930768
-0.008458351206817781,-0.005205084691601204
-0.008404071920105624,-0.005184637380526525
-0.0084075730542417,-0.005213169901905631
-0.008393243511150977,-0.005237047776398461
-0.008291594332531757,-0.005201417044478552
-0.008225614848201999,-0.0051692212401541916
-0.00823680193173992,-0.005217871341237755
-0.008209556793691621,-0.005242308377900868
-0.008117474828263893,-0.005205759151207696
-0.008075060501314162,-0.005178660951977616
-0.008099824996455576,-0.005224665274283669
-0.008106991065210917,-0.005243154481526015
-0.00802399101748803,-0.0052172309614470355
-0.007985114505654065,-0.00517566926075561
-0.008038232117600732,-0.0052212889950963605
-0.008056776023160215,-0.0052519876732264985
-0.007993517711809844,-0.0052017752452506155
-0.00796922173657389,-0.005182046288665976
-0.008029214788943398,-0.005229022376615707
-0.008044569490173516,-0.005250905144503437
-0.007990668751541231,-0.005198963529592077
-0.007958262342672343,-0.005160364043529285
-0.008010435156884557,-0.00521082872801827
-0.008036706108240877,-0.005232402614957869
-0.007982868143073335,-0.005191274919527302
-0.007957877342457427,-0.005171749778256805
-0.008014571314301243,-0.005205423154946726
-0.00802989183949546,-0.005239742900388474
-0.007968233824388049,-0.005190743920490291
-0.007942329491580132,-0.00517465490310851
-0.007999050536573075,-0.005203057976576109
-0.008025899347821573,-0.005235047984147007
-0.007966045669363635,-0.005193082857997453
-0.007947890126880727,-0.005169533674071191
-0.008006638192642631,-0.005204867871618148
-0.008020550971808553,-0.005236704046003395
-0.007960661956046194,-0.0051866515139285625
-0.00793031686334544,-0.005161181156709079
-0.007990201405805347,-0.005200943850497959
-0.008016746895743897,-0.005230684810901064
-0.007961197333952933,-0.00518877387507733
-0.00793515929587925,-0.005161480860615138
-0.007992552713066788,-0.005205473400086953
-0.00802178658512751,-0.0052312279163893435
-0.00795626280337573,-0.005184164319287589
-0.007931151870420063,-0.00517047144441812
-0.007986830491306747,-0.005208753402071275
-0.008004240270429753,-0.005239296645381955
-0.007946147547034758,-0.005184496623105922
-0.007922670486232923,-0.005168253161656467
-0.007980010169381014,-0.005212248208037029
-0.00800932337060108,-0.005236623800264153
-0.007951342740138355,-0.005185130195099294
-0.007934083282159977,-0.005159740082114503
-0.007983456296126292,-0.0052139318964164435
-0.008038418683916675,-0.005223896614289319
-0.00801342475697705,-0.005191671998612473
-0.008014729520818645,-0.005164404915982621
-0.008110030352440498,-0.005220143872241516
-0.008153201403129152,-0.005246319285435607
-0.008128737708859782,-0.005201785247247989
-0.008128293249289051,-0.005175939959522267
-0.008215596866433325,-0.0052381269713946575
-0.008245732827405832,-0.005246559644400507
-0.008214610508530498,-0.005197328495088375
-0.008196975108325885,-0.005177642726800043
-0.008276365469147813,-0.005220541812623539
-0.008304276671999143,-0.0052403814804087585
-0.00825337766640799,-0.005187461522451956
-0.008221556360540182,-0.0051617878976881176
-0.008271563986657989,-0.005208028387186071
-0.008288793710696636,-0.005236360759962501
-0.00822525236236073,-0.005183173393498964
-0.008201945538999842,-0.005162641854302703
-0.008249445778163682,-0.005212657132541385
-0.008264024390460884,-0.00522474828368147
-0.008211231577250198,-0.00518348893666626
-0.008190614821424795,-0.005152649026123328
-0.008239998555413864,-0.005205312320299086
-0.008264961089918732,-0.005225997608365205
-0.008205724766472685,-0.005184155508762462
-0.008186786005802948,-0.005157544105640462
-0.008243180766973548,-0.0051942642895868914
-0.0082470326005,-0.0052151045212686315
-0.008204923121187972,-0.0051657556079626465
-0.008182842485566277,-0.0051466102443426245
-0.008245180005286522,-0.005202796597589797
-0.008266684752233137,-0.005212132076113366
-0.008194363147341779,-0.005178890983727115
-0.008176651062658658,-0.0051441222724809485
-0.008231298108797675,-0.005182932561964779
-0.008246662277461774,-0.005223526097163725
-0.008195241072880843,-0.005165392762078549
-0.008174172956238714,-0.005143363127858895
-0.008227555979861184,-0.005193270880170934
-0.008253410527138436,-0.005219686466313294
-0.008190693469101897,-0.005178152194385228
-0.008173065135468864,-0.005154209830907046
-0.008234897347220329,-0.005194504108871479
-0.008248604180511637,-0.005215787020318244
-0.008189804237693905,-0.005184145730371125
-0.008165277204121649,-0.005145755445088244
-0.008224932687599964,-0.005201967153592612
-0.008240494897369572,-0.0052188942540127405
-0.00819011673828751,-0.005176357618920551
-0.008166263136263441,-0.005148735026168706
-0.008210597877204896,-0.005199525214163363
-0.008245853284164478,-0.005209904493253261
-0.00817627923463398,-0.0051764627440709
-0.008160761281241049,-0.0051521699302547715
-0.008205976398862884,-0.005193739616892922
-0.008219696303625549,-0.005216094386220278
-0.0081755960827253,-0.005169957303265038
-0.008146832182305682,-0.005153870890433854
-0.008204933079058382,-0.005200698594997906
-0.008218585232535899,-0.005230827426180253
-0.00816998324311688,-0.005184570067542137
-0.008142272936510828,-0.005165461140414955
-0.008200683546565984,-0.005213858235419956
-0.008224147823562839,-0.005230039994484783
-0.008161752729258976,-0.005184163545424295
-0.008139508737312824,-0.005164495755666406
-0.008193676963732499,-0.005215160014162026
-0.008219681758057155,-0.005230940636393865
-0.008163943992302171,-0.005174568908913632
-0.008133787827331505,-0.005158877403124152
-0.008190885670794028,-0.00520267037274946
-0.008212850522402677,-0.005232723301386648
-0.008156485795546264,-0.0051868047642188875
-0.008135317208168246,-0.005153843982422732
-0.00819204452628947,-0.005208485435397502
-0.008213053344808624,-0.005229790130779947
-0.008156210108993159,-0.0051898421315762205
-0.00814711376457612,-0.005163448593444338
-0.008190336514734848,-0.005197818702393922
-0.008226750875145693,-0.005229105455054227
-0.008162288839660147,-0.00518600952948377
-0.008137199832146462,-0.005159095074422266
-0.008178185226571471,-0.005198364354043724
-0.008217639720134059,-0.005224895322585912
-0.008141557364992733,-0.005180389888306786
-0.008085511884752098,-0.0051512512814379015
-0.008115464074570426,-0.005195405745098838
-0.008122139465593935,-0.005209947137498174
-0.008050211341411722,-0.005178864144007184
-0.008007058963689117,-0.005161028432122621
-0.008047428513323088,-0.0051881885126306695
-0.008040602130630157,-0.0052304675524087125
-0.007960496427494506,-0.00518124671075196
-0.007914792412457999,-0.005154918021753415
-0.007950221848206127,-0.005191405456338782
-0.007953163205263927,-0.00520459015448843
-0.007879660666095216,-0.005180053274070999
-0.007843117731141904,-0.005146835771031863
-0.007887616421442185,-0.005193593123717739
-0.007898700368395023,-0.005218798782425197
-0.007836914781293232,-0.005154742926249396
-0.007804235437756222,-0.005147877877721759
-0.007853456755276518,-0.005191996746469256
-0.007871194555541444,-0.0052064220443972815
-0.007816898897434466,-0.0051702425799093335
-0.007793226773260939,-0.0051513148895138946
-0.007864052162548988,-0.00519387460619843
-0.00787828342975662,-0.0052142924653881826
-0.007826826835124463,-0.005174474762377613
-0.007807971205965761,-0.005139017800434726
-0.007863454544180663,-0.005197172443398304
-0.00788844983049104,-0.005215355970824916
-0.007839068359562882,-0.005177783976072372
-0.007819698167751483,-0.005152805021110116
-0.007874628526423006,-0.005190937315409927
-0.007897742499061569,-0.005227220220184448
-0.007849611010220846,-0.005183043950093769
-0.007817820822748654,-0.005139413909072608
-0.007870359597576364,-0.005190310013195651
-0.007898807260691625,-0.0052210868843458385
-0.00784477785138394,-0.005174700982727963
-0.007819434876929236,-0.0051521175336918705
-0.007892647913968903,-0.005207346032679482
-0.007904116274724149,-0.0052303081369909545
-0.00785041498081635,-0.005164463832055713
-0.007841557102366708,-0.005153991304240411
-0.007886703829366407,-0.005184515695517406
-0.007911867975863102,-0.005233256666240349
-0.007860896539369385,-0.005174924145918903
-0.007839798309547386,-0.005156258863113994
-0.007891585779804085,-0.0052060172304293755
-0.007915345615227002,-0.005223374666677283
-0.007868230252169981,-0.005189564813717412
-0.007833884634468786,-0.005160300213679356
-0.007892961910096639,-0.005199281006725007
-0.007919800144174356,-0.005227822826703199
-0.007866327463284317,-0.00517174889384962
-0.00784191184477526,-0.005142937007510482
-0.007896360204317105,-0.00521481232581194
-0.007917418409539924,-0.005237925425501172
-0.007859127915073573,-0.005205237453296427
-0.007848999620740238,-0.005170573300705816
-0.007904109848345846,-0.0052027593263285175
-0.007920201532880498,-0.005239623815723875
-0.007869494003083233,-0.005186900303467273
-0.007847074649245531,-0.005174529189616638
-0.007900867625851928,-0.005214861344538861
-0.007921966846423703,-0.005238565473252065
-0.007872953849107588,-0.005203116922173582
-0.007850294057817479,-0.005171476193913914
-0.007902894148555543,-0.005225199644876954
-0.00793056682021539,-0.00523132982483875
-0.007865339109342171,-0.005200013706261769
-0.00785582405303191,-0.0051836408808827944
-0.00791539708805028,-0.00523111315126232
-0.00793616791086313,-0.005237117570645883
-0.007873274499079227,-0.005202169367112931
-0.007858678907780199,-0.005178560701885191
-0.007912555441989403,-0.005221524557970882
-0.007933125171532066,-0.005253990630532334
-0.007875774067675078,-0.00519097159230313
-0.007857277274321135,-0.005166238424900961
-0.00791183697125914,-0.005224208547203134
-0.007935299051989746,-0.005224847567839104
-0.00787857796759013,-0.005194869129650302
-0.007858165259075386,-0.005169572764259789
-0.007914286731048166,-0.005223269906878121
-0.007964107014166905,-0.005234557234079667
-0.00793560549331581,-0.005187569986604362
-0.007947849309353335,-0.005184028988283418
-0.008064559451988028,-0.00522777065738536
-0.008111199282564657,-0.005231769152353077
-0.008097695167721386,-0.005203993597270145
-0.008146478607136583,-0.005178856707135731
-0.00819404480908505,-0.00520906621823989
-0.008261074683554871,-0.005247690734445418
-0.008242799795103471,-0.005183635283495298
-0.008277464966164763,-0.005172750465506709
-0.008332426164697091,-0.005220114501089495
-0.008367774945391785,-0.005242725284160475
-0.008327292740030856,-0.005196842168682387
-0.008310982548872184,-0.0051751266737468495
-0.008359052466349806,-0.005218522468513569
-0.008368983502761053,-0.005227356117150726
-0.008300973334351652,-0.005200165168502861
-0.00826654067221346,-0.005167640184062571
-0.008314158680800359,-0.005231347627211875
-0.008341871554508459,-0.005240056151770551
-0.008290486975720936,-0.0051853942685543475
-0.008263001842402374,-0.005175056792227302
-0.008313137553727009,-0.005204133096768381
-0.008374832548640942,-0.00522294138808923
-0.008265932376626782,-0.005186213437386758
-0.008286284832360985,-0.005166043462205488
-0.008345586319804596,-0.0052045945246617705
-0.008398248892459237,-0.005218155348609213
-0.008313910567969247,-0.005193719017911056
-0.008344929688412666,-0.005153691529329294
-0.008403601855582634,-0.005208172922224421
-0.008490312549457592,-0.005253685393763121
-0.008512185852687785,-0.005175271656367347
-0.008432008791470469,-0.005161244057015027
-0.008633558595196439,-0.005218291938146251
-0.00874596955983328,-0.005224224419038269
-0.00873724788645346,-0.005191164633155891
-0.008755481566868796,-0.005178733489465203
-0.008857468204571289,-0.0052083850159980955
-0.00887861897033092,-0.005251070521593793
-0.008840804945053866,-0.005190387707908557
-0.008793311985879454,-0.00515654684166779
-0.008838790785512108,-0.005219231606045304
-0.008829896660850291,-0.00524569821953932
-0.008742988781759138,-0.005185127334895309
-0.008702151364780341,-0.005171293990490081
-0.008736313653454718,-0.005214072611383894
-0.008709079717962526,-0.005244824787828014
-0.008634946131622405,-0.005186414761386397
-0.00857074255562771,-0.005167163539820545
-0.008599395431901663,-0.005197938002386082
-0.008578152788723412,-0.005246628663446085
-0.008505169304893654,-0.005183423865824441
-0.008449299122602817,-0.005175732105732205
-0.00849453048020962,-0.005214288134012631
-0.008487779926457852,-0.005257368430012488
-0.008409069691775944,-0.005172292809835245
-0.008368707237999559,-0.005174440771833934
-0.008422543647483155,-0.005211723593949311
-0.008415849167642979,-0.005251910136998464
-0.008346182690988715,-0.005186288515091677
-0.008306327513645706,-0.0051566161572953444
-0.00836582052720792,-0.005209351072163065
-0.008365111699202484,-0.005227066431006386
-0.008306850267561255,-0.005213787339542859
-0.00826741959413312,-0.005137014899947545
-0.008328648674456948,-0.00524025021200571
-0.008323302387169189,-0.005239405094519666
-0.008259036239955378,-0.005189069160633253
-0.008240397168109275,-0.005157462530879534
-0.008301483667459336,-0.005244787637443379
-0.00829955992064891,-0.005225961171355186
-0.008230837671226265,-0.005173541578119755
-0.00821612215644875,-0.005147587936201089
-0.00827134370908897,-0.005212810755443277
-0.008286742527894977,-0.00525762760668157
-0.008231503024103852,-0.005193529043415298
-0.008211319874698794,-0.00513869007335724
-0.008245594758216995,-0.0052352086944836475
-0.008270080105489403,-0.005237467397559423
-0.008200494858225733,-0.005186615831538703
-0.008174768583399845,-0.005146487151412654
-0.008238727970192932,-0.005223551504033407
-0.008245992612146579,-0.005230926387854877
-0.008185484644262732,-0.0051739752491206745
-0.008175301264812083,-0.005169486398193336
-0.008239017038798539,-0.005205267391321448
-0.00824786433471803,-0.005206351838965392
-0.008170676381978591,-0.0051975752943865285
-0.008141226525649388,-0.005161705498159853
-0.008198653213457911,-0.005188897420671833
-0.008221301915420339,-0.005200338937809633
-0.008162832950095737,-0.0051810212548696055
-0.008129975164984274,-0.0051500333742781155
-0.008219281264898435,-0.00521897464889585
-0.008221038741484225,-0.005246714126549751
-0.008159438258915247,-0.005155107959104522
-0.008130284591907296,-0.005156675882689923
-0.008187599049647732,-0.005195830075564015
-0.00822367816754908,-0.005236286920591054
-0.008130303292913574,-0.0051861412418728855
-0.008125315187867419,-0.00517225050893875
-0.008199721202980901,-0.005218381695812904
-0.008190943131574807,-0.005230569603981288
-0.008148210647493211,-0.005169900936406342
-0.008120229710985966,-0.005138215036419703
-0.008203144798842578,-0.005224588290248067
-0.008204440673041142,-0.005199800822887985
-0.008139805396487863,-0.00520625779043395
-0.008114833748202382,-0.005160283475669302
-0.008191321993703257,-0.005211784347957543
-0.008226498525894002,-0.005227627446528553
-0.008143906237595897,-0.0051809933526755
-0.008131880672543891,-0.005170228977257697
-0.008190701767813731,-0.005248370303750442
-0.008208963137209275,-0.005221805377292217
-0.008161363134489076,-0.005172826346092445
-0.00815687318200192,-0.0051699771272073645
-0.008190084331598223,-0.005220342508054578
-0.008212993955563597,-0.005235400328554103
-0.008162395000259502,-0.005182988851692991
-0.008136766880572436,-0.005163792495154172
-0.008215339116901027,-0.005223509629059638
-0.008229492303740859,-0.005240092050877173
-0.00814287859521918,-0.005184570258013318
-0.008128367418676268,-0.00517859926166785
-0.008189163404605907,-0.005200820125376419
-0.008203327519414879,-0.0052218304586714075
-0.008158627712976744,-0.005194836411281225
-0.00814446834972534,-0.005183057921493776
-0.008207220637470685,-0.005214783948187163
-0.008213344312044842,-0.00522759559722561
-0.008155204214117815,-0.005193251708371629
-0.008132867512307742,-0.0051539187663945125
-0.00820118316659395,-0.0052294641625496435
-0.008211337211953919,-0.005237154838087494
-0.008148247894703855,-0.005179556524226577
-0.008139427380821657,-0.005152498259940449
-0.008197632322535467,-0.005239547335764238
-0.008201648238522609,-0.005220835744694904
-0.008147098903446936,-0.005184661333186217
-0.00812019259503012,-0.005167550721274523
-0.008197984564861632,-0.005219055795980578
-0.008214976974064994,-0.005233221275352093
-0.008162386341825329,-0.005187628880508042
-0.008137472833413033,-0.00517957830059383
-0.008187268658313084,-0.005213975857955027
-0.008208644198111183,-0.00522607948603895
-0.008135243122385215,-0.005194420488513025
-0.008128412115298774,-0.005166293499121856
-0.008187689584127482,-0.005217465916743313
-0.008208838081664335,-0.005247670900331241
-0.00815121483771841,-0.005187404204683365
-0.00813717173286672,-0.005154067442701985
-0.008191285837598029,-0.005214226719977241
-0.00821037426834177,-0.005250043552586236
-0.008155711038225153,-0.005169164496560296
-0.008122893712029261,-0.0051650807885858475
-0.0081807674354955,-0.0052286639917259355
-0.008227355886413157,-0.005243205729646136
-0.008144318031080773,-0.005174836762985301
-0.00812112056063799,-0.005161292078904835
-0.008188827871684602,-0.005202732759588822
-0.008217703227571194,-0.005241633255751206
-0.008162858755892717,-0.005179605591703429
-0.008122125391648262,-0.005165323767183774
-0.008200933999651387,-0.005241598327536058
-0.00821085865880639,-0.005242972797940706
-0.008145788602717785,-0.005148151406632774
-0.008121095656788391,-0.005140031701186716
-0.008187905999102758,-0.005168916367685484
-0.008199066915881814,-0.005212488499824009
-0.008153557769208251,-0.005149389610397143
-0.008122458990978751,-0.005143688436579158
-0.008162453983366623,-0.0051680965541466084
-0.008220873539795812,-0.00521267095881773
-0.008137875094899032,-0.005149740782386152
-0.008106445983807485,-0.005133031063730888
-0.008175462964837519,-0.005175587858140334
-0.008201425658607552,-0.0052059454060653714
-0.008141462723979722,-0.00516245749918415
-0.008118905531191392,-0.005141851881800214
-0.008167409940131341,-0.005173514814550278
-0.008196573375083154,-0.0052032863245405955
-0.008140774682151132,-0.005153903019051398
-0.008111743798148672,-0.00515901903401802
-0.008169830029801971,-0.005179173732862141
-0.00819500862513282,-0.005201393574827028
-0.008142108287546532,-0.005149352127197711
-0.008104069011125934,-0.005123389884139774
-0.008189029897335925,-0.005193937369831109
-0.008187867310941302,-0.005196347412751938
-0.008130409260332557,-0.0051471755368500864
-0.008125558993402006,-0.005144617359098008
-0.008172798502220368,-0.005208262482418045
-0.008190904810718517,-0.005202571779959803
-0.008135127717894037,-0.005143334506626832
-0.008134107660917137,-0.005137362444024342
-0.008178406393942149,-0.005190062828670381
-0.00818506518819629,-0.005197960035692771
-0.008123030141785939,-0.005153387144632983
-0.008122833105734797,-0.0051500952899468854
-0.008164729496101081,-0.005197888339159208
-0.008193468163359164,-0.005206596857533296
-0.00815399204210138,-0.005166771475022141
-0.00812444324009403,-0.005136520024010957
-0.008172745844100472,-0.005181852623275228
-0.008199115818618716,-0.005207755598554631
-0.008137724361779885,-0.005157345841551576
-0.008123663267989134,-0.005144396048518181
-0.008182488651249098,-0.00518069490947749
-0.008211202177572848,-0.005218729549682058
-0.008153108354226432,-0.005168003472427521
-0.00811744093228944,-0.00514508351882096
-0.008180456035848067,-0.005202281484501048
-0.008200582753795245,-0.005200216442766009
-0.00814274420110796,-0.005166430618841921
-0.00810965816660256,-0.00514457717539917
-0.008187444268259392,-0.005210152174191957
-0.008202810760556506,-0.005213003740205669
-0.008143278590969078,-0.005164984941502961
-0.008123096031930836,-0.0051477364716749395
-0.008184398725543489,-0.005191354731730495
-0.008195216450128223,-0.0052093359957284995
-0.008139230986743906,-0.0051706078176765174
-0.008120043954946,-0.005138814889189496
-0.00816946455221396,-0.0051897915827494746
-0.008191377837644178,-0.005205307298759235
-0.00814135418850486,-0.005158428427618141
-0.008126096039663501,-0.005155741758990475
-0.008182303053511152,-0.005191784538336477
-0.008192207751483438,-0.005207559974459942
-0.008135487166302373,-0.00516088368261981
-0.008121550804757146,-0.005142291013466501
-0.008186793386555294,-0.005185048594620454
-0.008190320724426891,-0.005203265081193092
-0.008147567512317828,-0.005167670771812726
-0.00811841236793052,-0.005148765994541484
-0.008175186644375129,-0.005189482416709108
-0.008186221951377111,-0.005215931408998548
-0.008140104266242296,-0.0051684624255845775
-0.008122598568811302,-0.005147945114946839
-0.008176595571901086,-0.005194553739357852
-0.008194465938797442,-0.005209808853089083
-0.008134781023488635,-0.005160160526288989
-0.008113359095089014,-0.005149803965987134
-0.00817323618384783,-0.005190074736671773
-0.008189315872103812,-0.005214777641333732
-0.00813075336827515,-0.005161350855122572
-0.008128382158219488,-0.005149061534594385
-0.008179944465972235,-0.005189648194894531
-0.008208285310670013,-0.005216941529246098
-0.008140772873842031,-0.005168173225146841
-0.00812147873618018,-0.005151282305727904
-0.008177609790423078,-0.005199394944403081
-0.008191563909767554,-0.00521673693585643
-0.008141785020570223,-0.005163426607156365
-0.008115411731402063,-0.005152339971126878
-0.008178423802664835,-0.0051940149724692365
-0.008187022480694256,-0.005222973108107887
-0.008139450369736095,-0.00515924784197519
-0.008134838649581881,-0.00515838800974289
-0.00817732185968042,-0.005196430033851623
-0.00819656792097427,-0.005214851578692343
-0.008129530259707283,-0.005172442210286946
-0.008113505903297189,-0.005156689530951865
-0.008163065398961698,-0.005196044795769653
-0.008186195982867168,-0.005207653295850209
-0.008141832468907333,-0.005165221544177991
-0.00811982396584816,-0.005145807170666735
-0.008167832143800693,-0.005187521676647871
-0.00819079578119704,-0.005207621878695487
-0.00813212364841711,-0.005161049609458697
-0.008118931011895836,-0.005128278975138824
-0.008172209798620557,-0.005219291917233782
-0.008180353367758884,-0.005234469829855312
-0.008127724856534606,-0.005202971059213962
-0.008108725180037482,-0.005192930477310328
-0.00816776119423764,-0.005232205477355452
-0.008183144609315676,-0.005243035213014009
-0.008131009914235186,-0.005194473389179797
-0.00810914812266886,-0.005177560603898897
-0.008162043154751055,-0.005216943049578095
-0.008189441640034049,-0.0052398893278169404
-0.00811676553193866,-0.005192242492650956
-0.008104047665481595,-0.0051845965447377485
-0.0081649947090412,-0.005218183186793007
-0.008184141639370023,-0.005233153369965848
-0.008125157356388558,-0.005194922267416763
-0.008106203770112296,-0.00518456781331199
-0.008168114489744971,-0.00520861690448867
-0.008177364687424348,-0.005251341187882702
-0.008123915379661133,-0.00519090019129467
-0.008098701913284182,-0.00518130561133253
-0.008164839255770379,-0.005219157594944723
-0.008178852137814406,-0.0052322496400874115
-0.008126281159643024,-0.0052031435109368305
-0.008108315521064252,-0.005181747754968649
-0.008164059684183067,-0.005223947049414547
-0.008182424712726847,-0.005252731467834943
-0.008116134987147802,-0.0051936394649031445
-0.008103571779960031,-0.00516879497470368
-0.008164265622538464,-0.005216506557609873
-0.008182966412713311,-0.00524620585152453
-0.00812952724709984,-0.005194548811515806
-0.008103655252579764,-0.005184152309039301
-0.008167084665986502,-0.005227296216835743
-0.008185458010651478,-0.005232288291773729
-0.008132529282877232,-0.005200711981638048
-0.008116153526953947,-0.0051691249284603205
-0.008183700793067714,-0.005207022620637243
-0.008191284015886608,-0.00524005641188604
-0.008135040834509081,-0.005214029822502092
-0.008117205433302736,-0.005191834549250823
-0.008180736790046921,-0.005242653659591726
-0.008194179418630066,-0.005253837711558812
-0.008144566371425603,-0.005213188653564686
-0.008134114658718035,-0.005186330240580232
-0.008183598580467378,-0.005239549189061284
-0.008192318640426827,-0.005247294395493673
-0.008135634931727474,-0.005214691104838952
-0.008128322118964535,-0.005188224265998639
-0.008175874291961146,-0.005240459794502541
-0.00820058158658825,-0.005252139068877534
-0.008153549317450179,-0.005221745681005183
-0.00812967072374143,-0.005193366058640465
-0.0081934660519964,-0.005239075691582724
-0.008204565935443277,-0.00526634287337725
-0.008150673010534725,-0.005208500612998725
-0.008131979012366602,-0.005196598364811054
-0.008193648507158823,-0.005249539444352443
-0.008211408884420696,-0.005254242187533924
-0.008150403914934637,-0.005215087347512779
-0.008131415951698338,-0.005205618024548586
-0.008198332376701733,-0.005247657071873367
-0.008207005816792746,-0.005237750275869671
-0.008121626847070126,-0.005190422527477762
-0.008080474180354586,-0.005182259228343885
-0.008113002825444733,-0.005226001000955484
-0.008117067281004154,-0.005236467532545148
-0.008039801057893625,-0.005201829980605657
-0.00800078681819619,-0.005169383037162806
-0.008049230081136834,-0.005221842488721447
-0.008049943000099053,-0.0052213006449207166
-0.007975706507806796,-0.00516992533423593
-0.00794223040076383,-0.0051565402503061745
-0.00797905022102846,-0.005196886984071726
-0.007983741288399451,-0.00523173761699734
-0.007912358583488443,-0.005177150555717738
-0.007887476233419368,-0.005168272154189486
-0.007931401460948787,-0.005234289923157438
-0.007931570238151121,-0.005239485299823273
-0.007871721641492973,-0.005177004710140712
-0.00784150025327294,-0.005179498666832216
-0.00788559224495003,-0.005231565665416627
-0.007889589380279042,-0.005244542559583071
-0.007827291467866484,-0.005202077323495925
-0.007810666858456816,-0.005180410690937489
-0.007876587751056237,-0.005234003707171429
-0.007900376703742632,-0.005241800470130732
-0.007848503973321885,-0.0051999299492847244
-0.007829540275502709,-0.0051793876486833194
-0.007897498088475167,-0.00523434899949952
-0.007909830996873847,-0.005242555532850368
-0.007846167398322813,-0.0052035552966542
-0.007830262353705809,-0.00518178720535479
-0.007893966207310716,-0.005224554368577701
-0.007906629969994998,-0.005251676693468047
-0.007853097141729059,-0.005199639163377957
-0.007842380714255635,-0.005198315145890734
-0.007906524825756251,-0.005227387808874253
-0.007922691200462552,-0.005260921911408874
-0.007858669060618566,-0.005199072257357264
-0.007843810960062184,-0.005179367138621407
-0.007896739181408673,-0.00523853152567408
-0.007912198655835537,-0.005236093321784965
-0.007849066939033868,-0.005208816727755211
-0.007828844396639573,-0.005188835120800048
-0.007889880616599655,-0.005241704193908243
-0.007895218961010775,-0.005268371273998585
-0.007839230230186385,-0.005224216742411079
-0.007813341528512176,-0.005196107880554389
-0.007866669258001873,-0.005246053296688272
-0.007884755560331958,-0.0052574787059890184
-0.007832260168889422,-0.005216266096167323
-0.007815909058728098,-0.005196966576393899
-0.007877224868586712,-0.005249980996381331
-0.00789425289990388,-0.0052525990660165145
-0.007838710723211267,-0.005220061002376551
-0.007815627419941077,-0.005194752683791598
-0.00787963262315656,-0.005237437747398833
-0.007894348596499123,-0.005251251179348077
-0.007842702582148647,-0.005212886325006152
-0.007827049021044188,-0.005201177904951042
-0.007885734719946833,-0.00523942763977723
-0.007894085496819065,-0.005256620455971504
-0.007838691576353056,-0.0052074758230018425
-0.007820219493297103,-0.005194808173503448
-0.007884641358442262,-0.005236729263414715
-0.007892846286318811,-0.005262971860013849
-0.007845157731710658,-0.005210323618039741
-0.00782444534972051,-0.0051931416101671886
-0.007879115845662279,-0.005246034844701948
-0.00789965754918244,-0.005247991284069713
-0.007845234389788593,-0.005216317356582766
-0.007825248125927218,-0.005194426423853328
-0.007883705514499108,-0.0052361488112939135
-0.007898639222877474,-0.005258046031320687
-0.007847802111756836,-0.00521109360633099
-0.00783182027783898,-0.005190241432156128
-0.007883063700557219,-0.005242217288782479
-0.007908989794351685,-0.00526079653105757
-0.007842920306866815,-0.005203206047492222
-0.007830803230083217,-0.005193740472830089
-0.00787657449787872,-0.005233245910917635
-0.007892333387120823,-0.005257881323089621
-0.007840907758325442,-0.005211321799162474
-0.007825967721223345,-0.0051828407579782194
-0.007885072197413487,-0.005247043180717833
-0.007896331567786222,-0.0052512739957847445
-0.007837980232453284,-0.005214577572297574
-0.00781459858060809,-0.005203710063605646
-0.0078799796523962,-0.005243573019655736
-0.007887087885441414,-0.0052555156454645235
-0.007826787823503848,-0.0052030126740189074
-0.007816263643857691,-0.005193951638237267
-0.00787560200236833,-0.005246265895160645
-0.007896110978893749,-0.005264069099940071
-0.007831996793610909,-0.005210296695332177
-0.007820371716930423,-0.005189117829442008
-0.007879175969832045,-0.005250895459312591
-0.007900950468059163,-0.005261154732877944
-0.007841546884153129,-0.005220417732385182
-0.007819534471768832,-0.005204345560065608
-0.007881455772953289,-0.005244484798464041
-0.007889319259231262,-0.005269523792818972
-0.00783366430095092,-0.005223672623169978
-0.007825311323055367,-0.005205833311625807
-0.007886420714760957,-0.005253029167082847
-0.007902063433563804,-0.005275398991707512
-0.00783279090537449,-0.005227871351365892
-0.0078118482672754706,-0.005212984970506066
-0.007876404665109922,-0.005266499882219306
-0.007889958835622244,-0.005273900270956397
-0.007838597617763083,-0.005227529914842744
-0.007825657581422547,-0.005204994786254513
-0.007876897298926898,-0.00525537354478213
-0.007889858929082224,-0.005268712656839677
-0.007828191226064027,-0.00522517882808673
-0.00782749602965822,-0.005214820395218018
-0.007928129673119523,-0.005249750067983264
-0.007974178162046205,-0.005278330422896066
-0.007966734270203168,-0.0052245025617389685
-0.007971139864025924,-0.005219624881721672
-0.008058955576887357,-0.005245960740153091
-0.008114185640970849,-0.005268209086190417
-0.008083863518830281,-0.005224788560092008
-0.008115303379067875,-0.005211932560302177
-0.008198345027270133,-0.005257887153698324
-0.008242940331041029,-0.005275227740099688
-0.008223562207289365,-0.005227064872585418
-0.008227881873894578,-0.0052018043849456535
-0.008284797524513499,-0.005257660851895002
-0.008305757518035684,-0.005266052351679687
-0.008259710553529384,-0.005219566397397344
-0.008223100719383394,-0.005202461953166681
-0.008269202329173426,-0.005249372955900738
-0.008280847809086136,-0.0052639138875935475
-0.008218651015782273,-0.005216268064798902
-0.00820249396838001,-0.005199792227649938
-0.008265806229243533,-0.005245990406653949
-0.008284439836084644,-0.005261557916571613
-0.008226921739948316,-0.005207531346255188
-0.008212406249061563,-0.005194825023424188
-0.008270425386987842,-0.005246236459136976
-0.00828155530518151,-0.0052534449931756055
-0.008220194900763493,-0.00521345942125366
-0.008207017687825216,-0.005189885107195324
-0.008271222356250867,-0.0052441531920279704
-0.008285434057138752,-0.005253930373794161
-0.008227228457162629,-0.0052137794165881815
-0.008222086037206889,-0.005185014287073709
-0.008281935545950664,-0.005235683536688813
-0.008280469603855095,-0.00525736177801325
-0.008218218225102625,-0.005201198011674076
-0.008204310120752598,-0.005188978571319951
-0.008261864267400712,-0.005229487912533353
-0.008278047542872202,-0.005258722472937817
-0.008222950677602212,-0.005201483663989381
-0.008204386412154561,-0.005198794573259679
-0.008270583006148146,-0.005233313172782402
-0.008276065302827311,-0.005244318148869881
-0.008217199634165291,-0.0052010695747901235
-0.00819161791753808,-0.005186329040169274
-0.008257773194394092,-0.005233181090310939
-0.00827279385590667,-0.0052484986747774205
-0.008218588216720495,-0.005200338848727882
-0.008206690590573435,-0.005201124591600255
-0.008255072889927923,-0.005243081895632769
-0.008265628530575947,-0.005259025093949895
-0.008202358818941996,-0.005201365994340789
-0.008185108688419023,-0.005188850191395897
-0.008243037778218887,-0.005241409336652447
-0.008255289318115066,-0.005257606923109355
-0.008194723741302841,-0.005209058650351344
-0.008178595836767165,-0.005188508840632967
-0.00823711907130837,-0.005240888633648214
-0.008261636760271732,-0.005262114199500001
-0.00819820302613716,-0.005201587496876331
-0.008190534975410764,-0.005187800525262044
-0.008247766491984733,-0.005225350572452826
-0.008250658507351736,-0.0052462193918135875
-0.008188238586478146,-0.005196260859212241
-0.008177592193772808,-0.005188398207763982
-0.008239677618999014,-0.0052340511951458
-0.008251374030038262,-0.005248210034455163
-0.008198068296255216,-0.005203507873551083
-0.008181069999849532,-0.005182145961439442
-0.008240060055766623,-0.005232914636228933
-0.008247824233523786,-0.005247101559469638
-0.008191486261455445,-0.005197436033283469
-0.008173819752117797,-0.005182286139075927
-0.008234686303767613,-0.005227178775961478
-0.008248780427226836,-0.005251732825993345
-0.008180951171269204,-0.005195589073348375
-0.008173253213417202,-0.005177938547939903
-0.008232252497720497,-0.005226745366930454
-0.008242025882053361,-0.005242012103288516
-0.008179515485006707,-0.00519633594365723
-0.00816582884861751,-0.005174701103131937
-0.008235079808578785,-0.0052212751344079935
-0.008235307763376356,-0.005234712751567591
-0.008176349533699587,-0.005184314255162021
-0.008158039705512122,-0.00518018490681692
-0.008221815586854371,-0.005221360228740666
-0.008234138039576011,-0.0052401917645257265
-0.008176822964399125,-0.005184419602913222
-0.008165411030216042,-0.005182408027499773
-0.008220207913887985,-0.00522509535162497
-0.008230784014458245,-0.005240234976302006
-0.008163209576168593,-0.005190789614176749
-0.008157724771833954,-0.005173119761826632
-0.008199599386469974,-0.005232265425434316
-0.008227203544445364,-0.005238266613092699
-0.008161783178867161,-0.00517430655005989
-0.008142124135747723,-0.005164937795828945
-0.008199310443057188,-0.005197020322531219
-0.008213080676017922,-0.005226715575591556
-0.008145215260089432,-0.005187095221097257
-0.008132274238699803,-0.00516347435773754
-0.008183841211366496,-0.00521606816860346
-0.00819816971060966,-0.005231955984478504
-0.00813840040186055,-0.005186731027466353
-0.008134653519196691,-0.0051723911175278
-0.008185175153475164,-0.005221250400048498
-0.008209659202021257,-0.00523444795927392
-0.008157410509896117,-0.005182692262195262
-0.008136171332018795,-0.0051752481248710435
-0.008187787464390903,-0.005218573365559527
-0.008206746578264312,-0.005228228413860476
-0.008143219377638573,-0.005189060661110878
-0.008131090949873073,-0.005162780303404936
-0.008189687165573568,-0.005211326901689279
-0.00819458415220397,-0.005240093363219788
-0.00814840536536746,-0.005180584619013336
-0.008126858024924206,-0.005167900549792543
-0.008185477686117685,-0.005210007783465519
-0.008201766114854132,-0.005240177047564512
-0.008137618799445525,-0.00518393307260501
-0.008122630915411572,-0.005179389547725652
-0.008192854791692359,-0.005211640986177443
-0.00820101066842942,-0.00523545431144649
-0.008132504022959813,-0.005183047276916694
-0.00812805677002363,-0.005176510357860911
-0.008190703280643608,-0.00521597801327152
-0.008202422635135525,-0.005229698414542033
-0.008142676875528663,-0.005175712271053848
-0.008129098486519562,-0.005169726515794935
-0.008186798624640928,-0.005223796645294105
-0.008195108705138442,-0.005238077449211384
-0.008139341885004463,-0.005185635765649134
-0.008118203291602216,-0.005175327224732464
-0.008190657448090949,-0.0052227669556519024
-0.008196387536676002,-0.00523898929291235
-0.008139081269624376,-0.005182698187242839
-0.008130465029488108,-0.005174247123305348
-0.008189667350581478,-0.005226737587736592
-0.0081976309082076,-0.005235165453494833
-0.008133740034124731,-0.005190330314645615
-0.008130023559560587,-0.0051799147543211
-0.008196370710163181,-0.005222398751528031
-0.00820209828147388,-0.005239742904746504
-0.008141513555817178,-0.005181332976208766
-0.008130325769571723,-0.005171943300528639
-0.008203962886726259,-0.005219091351073553
-0.008209060393853825,-0.005237368197538735
-0.008151126471203236,-0.005184552371166423
-0.008146102887813632,-0.00517097707857067
-0.008200347767631934,-0.0052118008321738385
-0.008218874132371122,-0.005226132295805136
-0.008160115548273011,-0.005174373443547361
-0.008152989389373432,-0.005162547397347259
-0.00821405538354186,-0.005214309417394227
-0.00821571026801717,-0.00523824584763649
-0.008157763409327886,-0.005190099024667377
-0.008148836805664509,-0.005166917118926456
-0.008190995810154365,-0.005210627262677627
-0.008200053271465365,-0.005221347173905078
-0.008146420219711348,-0.005166895630152565
-0.008124041627554831,-0.005171246741983406
-0.008184213429282734,-0.005223149578229903
-0.008199609532101007,-0.005230228962052247
-0.008141824065580415,-0.005185344347691425
-0.008124747328458486,-0.005160389102415176
-0.008184439357546165,-0.0052048695844436575
-0.008198365703554826,-0.005221185973622641
-0.00813969576791474,-0.005174371394156997
-0.008121867907423018,-0.005176934951515788
-0.008187117881534091,-0.005213382404822578
-0.008195270357514595,-0.005231283312310722
-0.008138309942456234,-0.005181557306809291
-0.008127773567324333,-0.005171646334396029
-0.008183667215126323,-0.005219418267759775
-0.00820070587765054,-0.005229158448173034
-0.008126005105483064,-0.005169634323523945
-0.008086088548039326,-0.00515932356734667
-0.008121885851198152,-0.0052063580882598486
-0.00810242003215494,-0.005198908578452384
-0.008024181774904533,-0.005162234076377259
-0.007984519859544665,-0.0051460929878423805
-0.008023934850294977,-0.0051983346469516795
-0.008021663107902846,-0.005218563956785685
-0.007950032542659176,-0.005159965896136752
-0.007921501681246461,-0.0051432106690436396
-0.007961631056872512,-0.005187867480978072
-0.007959886732636782,-0.0052042715643293306
-0.007882976134991724,-0.005153300735857303
-0.007857040933193506,-0.005143488007288573
-0.007897377034236167,-0.005193407503552747
-0.007898215493892935,-0.005217531623474699
-0.007827297663940786,-0.005169783064687077
-0.007807401107559156,-0.00515882954082696
-0.007856528147492345,-0.0051987395386527595
-0.007862659306930843,-0.005226783271463196
-0.007804685941852589,-0.005174419423764214
-0.007798860724547686,-0.005159511702452066
-0.007864962090070671,-0.005201957713782891
-0.007875682252251659,-0.005225195396414458
-0.00782509770963944,-0.005175598075513594
-0.007816160582616107,-0.005160812631936292
-0.007879617137905437,-0.00521259671923839
-0.007888573653949588,-0.005222915320589457
-0.007832543336267919,-0.005179386255537538
-0.0078223492111763,-0.005167816711908245
-0.007882748875598058,-0.005211656489816768
-0.007893302572627808,-0.005222852616361466
-0.00783483209085496,-0.005166409768738019
-0.007829450880665863,-0.005158732112971662
-0.007886278244203107,-0.005208077633609178
-0.00789879835786381,-0.005217886407402652
-0.007847578797801884,-0.005170350727784873
-0.007836974517079572,-0.005161612922529019
-0.00789631682831964,-0.0052068767579966585
-0.007904959391686936,-0.005225219891507372
-0.007848887732862653,-0.005173145881414031
-0.007835985904830664,-0.0051584807234943105
-0.00790289067501919,-0.005204527118901943
-0.007906627488963676,-0.005219332647721083
