,ECG_Raw,ECG_Filtered,ECG_Clean,R_Peaks
0,0.000762939,-0.0185081175988177,-0.0005357662201111796,0.0
1,-0.000610352,-0.00407585975715543,-0.0011333794623005302,0.0
2,0.000762939,0.010286692552532787,-0.000813980040205353,0.0
3,0.002288818,0.024410134224891397,0.0003562253856825477,0.0
4,0.005340576,0.03804170219258593,0.002299759105861416,0.0
5,0.008087158,0.050845317405958726,0.004923703276054792,0.0
6,0.010375977,0.06241139946596109,0.00811612953085539,0.0
7,0.011444092,0.07227673415225086,0.011743705123391089,0.0
8,0.01083374,0.07995400874999026,0.01565101163384061,0.0
9,0.010375977,0.08496999453620968,0.019662031876897967,0.0
10,0.012969971,0.08691073092651752,0.023584145414743504,0.0
11,0.013122559,0.08547141604392638,0.027214825067260456,0.0
12,0.012969971,0.0805080236996289,0.030351046602854356,0.0
13,0.012969971,0.07208698233821689,0.03280121281323013,0.0
14,0.010375977,0.06052862301491729,0.03439915561970125,0.0
15,0.017852783,0.046439570642812275,0.035019522647806,0.0
16,0.027618408,0.03072884856558905,0.034593586611558716,0.0
17,0.057830811,0.014602288521869549,0.03312424911306105,0.0
18,0.056762695,-0.00046985998280788324,0.030698767285318403,0.0
19,0.053863525,-0.01281603757371719,0.027497553008338043,0.0
20,0.055847168,-0.020658687538772192,0.023797341612779955,0.0
21,0.009613037,-0.022239600246417367,0.019967167814645734,0.0
22,-0.014190674,-0.015968725986411664,0.016455968655641556,0.0
23,-0.013885498,-0.0005856428774024675,0.01377125863179569,0.0
24,-0.004272461,0.024680276859230244,0.012449136345568792,0.0
25,-0.009002686,0.05996636624928092,0.013016784464517464,0.0
26,-0.015258789,0.10466491154040826,0.015949503206083814,0.0
27,-0.014953613,0.15735678463799893,0.021625083962927085,0.0
28,-0.01159668,0.21580189555146906,0.03027893018507173,0.0
29,-0.008850098,0.27699498678313206,0.04196373094816922,0.0
30,-0.006256104,0.33729155793943133,0.056517653219004815,0.0
31,-0.003967285,0.392604152884906,0.07354490566564159,0.0
32,-0.003967285,0.4386639611715039,0.09241210982334887,0.0
33,-0.003814697,0.4713367737088806,0.11226317192345463,0.0
34,-0.046844482,0.4869758340518694,0.13205426557435093,0.0
35,-0.06652832,0.48278698662769987,0.15060909819339974,0.0
36,0.066070557,0.4571735336800161,0.16669282290657905,0.0
37,0.545196533,0.4100194955551918,0.17910075249091437,0.0
38,1.094512939,0.3428628094455944,0.18675548846084863,0.0
39,0.451507568,0.25891098549947683,0.18880352008858572,0.0
40,-0.21697998,0.16286956782721584,0.18470054460593938,0.0
41,-0.458374023,0.06059004888330889,0.174274746314878,0.0
42,-0.369262695,-0.04141433504539642,0.1577596695408423,0.0
43,-0.194396973,-0.1365098851969876,0.13579267937166595,0.0
44,-0.108184814,-0.21846544625532477,0.10937992936496341,0.0
45,-0.077514648,-0.2819016835318703,0.0798327810316753,0.0
46,-0.058898926,-0.3226367359611652,0.048683001007935114,0.0
47,-0.046081543,-0.33791890367260197,0.01758487182451704,0.0
48,-0.033569336,-0.32654974942097115,-0.011787924375707328,0.0
49,-0.023498535,-0.2889076347575461,-0.03784366203085225,0.0
50,-0.013427734,-0.2268847045272346,-0.059166313785485786,0.0
51,-0.002746582,-0.1437512648243038,-0.0745970230866044,0.0
52,0.00793457,-0.043961244471921915,-0.08329981415252753,0.0
53,0.019073486,0.06708845631600507,-0.08480911109175253,0.0
54,0.027618408,0.18333302940098034,-0.07905758475959147,0.0
55,0.037231445,0.2983385310140912,-0.06638367531261388,0.0
56,0.048522949,0.4056143002079844,-0.04751886921680018,0.0
57,0.063171387,0.49892906185202857,-0.023555472903998516,0.0
58,0.078735352,0.5726202345588361,0.004103741145406986,0.0
59,0.099487305,0.6218849029579613,0.03381200098187332,0.0
60,0.122833252,0.6430395651073834,0.06375843169695462,0.0
61,0.144500732,0.6337345458895548,0.09205800144987134,0.0
62,0.160827637,0.5931084078356406,0.11684743691787508,0.0
63,0.174102783,0.5218683605258858,0.13638238611085043,0.0
64,0.176544189,0.4222850595000102,0.14913061041882747,0.0
65,0.158081055,0.298094601692723,0.15385574426567747,0.0
66,0.109558105,0.1543070053946246,0.14968627978462354,0.0
67,0.029449463,-0.003071338916802377,0.13616500831823744,0.0
68,-0.055236816,-0.16738474303103146,0.11327522816518307,0.0
69,-0.127410889,-0.33171997065882153,0.08144157959480003,0.0
70,-0.174102783,-0.4893119136609765,0.04150526536034038,0.0
71,-0.202026367,-0.6339304220428248,-0.005324561370233898,0.0
72,-0.210723877,-0.7602178457423128,-0.05753957383645106,0.0
73,-0.209350586,-0.8639529227867803,-0.11341604113564707,0.0
74,-0.197296143,-0.9422251277423914,-0.17110746389766263,0.0
75,-0.177612305,-0.9935129388884427,-0.22873961431159454,0.0
76,-0.161895752,-1.017668355746737,-0.2845017772283979,0.0
77,-0.146026611,-1.0158174342053061,-0.33672874661898095,0.0
78,-0.12878418,-0.9901920471674001,-0.383969251018611,0.0
79,-0.113983154,-0.9439113628332195,-0.4250378109855607,0.0
80,-0.097198486,-0.8807328137141957,-0.4590484276878998,0.0
81,-0.083465576,-0.804791929481237,-0.48542984418310103,0.0
82,-0.070343018,-0.7203486875456846,-0.5039233177728519,0.0
83,-0.059051514,-0.6315553436531676,-0.5145648286159078,0.0
84,-0.051727295,-0.5422573683475733,-0.517654387255237,0.0
85,-0.043029785,-0.4558354468606957,-0.51371557517993,0.0
86,-0.040740967,-0.37509279502399673,-0.5034486616249378,0.0
87,-0.035552979,-0.30218856839786423,-0.48768060777874717,0.0
88,-0.030822754,-0.23861511765472482,-0.46731503194864016,0.0
89,-0.028533936,-0.18521442874732402,-0.44328481155958416,0.0
90,-0.026092529,-0.14222735739672976,-0.41650949049293484,0.0
91,-0.023803711,-0.10936821734977215,-0.3878590929184184,0.0
92,-0.021209717,-0.08591685176660338,-0.35812536229739117,0.0
93,-0.021209717,-0.07082042561207905,-0.3280008845319605,0.0
94,-0.021362305,-0.06279772791039598,-0.2980660474144903,0.0
95,-0.018615723,-0.06043966367332894,-0.26878335666765635,0.0
96,-0.018615723,-0.062300753561215616,-0.2404982865219701,0.0
97,-0.018615723,-0.06697776029962411,-0.21344559797576307,0.0
98,-0.013885498,-0.07317293402828344,-0.18775991253816302,0.0
99,-0.013885498,-0.0797407200057216,-0.16348927925723428,0.0
100,-0.01159668,-0.08571801353986115,-0.14061050850364726,0.0
101,-0.009307861,-0.09033909965389555,-0.11904515289407455,0.0
102,-0.011444092,-0.09303722063538249,-0.0986751759709838,0.0
103,-0.009002686,-0.09343525567394984,-0.07935754351024357,0.0
104,-0.003662109,-0.0913282981502937,-0.060937182609239395,0.0
105,-0.003814697,-0.08666101895818686,-0.04325796508312234,0.0
106,-0.001525879,-0.07950262763100815,-0.026171571975705885,0.0
107,0.000915527,-0.07002197689391701,-0.009544274033534913,0.0
108,0.001068115,-0.058464901380179866,0.006738191884793862,0.0
109,0.003662109,-0.045135278648290394,0.02276736694880075,0.0
110,0.000610352,-0.03038061417848855,0.038610094386989174,0.0
111,0.005950928,-0.014582247690332225,0.054307472442046645,0.0
112,0.005645752,0.0018503780699195213,0.06987441806579613,0.0
113,0.003204346,0.018482497852028414,0.08529959170734788,0.0
114,0.00579834,0.03485538378741772,0.10054552821740698,0.0
115,0.003509521,0.05048807337952213,0.11554892886337799,0.0
116,0.007629395,0.06488131388020342,0.13022118254542753,0.0
117,0.010528564,0.07752539959834345,0.1444492868934839,0.0
118,0.010681152,0.08791319202237446,0.1580974187596645,0.0
119,0.011901855,0.09555907970044404,0.17100944891568895,0.0
120,0.013122559,0.10002403600334812,0.18301270297016067,0.0
121,0.01083374,0.10094631573866662,0.19392323937054984,0.0
122,0.012817383,0.09807670388503778,0.20355284739603327,0.0
123,0.008239746,0.09131658453889842,0.2117178648644357,0.0
124,0.010681152,0.08075643284902992,0.21824977816592006,0.0
125,0.007171631,0.06671165323980638,0.22300739761388014,0.0
126,0.008087158,0.049752013119322425,0.2258902011700886,0.0
127,0.015563965,0.030720294202682123,0.22685221337444883,0.0
128,0.028839111,0.010735285295382133,0.22591554139841002,0.0
129,0.052947998,-0.008825960952713187,0.2231824413584426,0.0
130,0.042419434,-0.026371284677486784,0.21884456369581637,0.0
131,0.051422119,-0.040165281843419436,0.21318787401831932,0.0
132,0.036468506,-0.048430562865747796,0.206591728508268,0.0
133,-0.005950928,-0.049475415651961625,0.19952076260126037,0.0
134,-0.021057129,-0.04184068987427281,0.19250866400736114,0.0
135,-0.007629395,-0.024454873277075167,0.18613353596077437,0.0
136,-0.008850098,0.003216310897156398,0.18098535123174636,0.0
137,-0.022277832,0.04104048006537871,0.17762685390468003,0.0
138,-0.026092529,0.08812365596659774,0.1765500859012624,0.0
139,-0.018768311,0.1427627713279331,0.17813142599377077,0.0
140,-0.018768311,0.2024563860102344,0.18258858013110502,0.0
141,-0.014038086,0.2639812729804708,0.18994330818705402,0.0
142,-0.011749268,0.3235385104671697,0.19999376931290505,0.0
143,-0.011291504,0.37696791672896773,0.21230017923467318,0.0
144,-0.011444092,0.42002421924608996,0.2261869727592286,0.0
145,-0.024414063,0.44870230921385584,0.24076383603307722,0.0
146,-0.079803467,0.45959226366674466,0.2549668008468324,0.0
147,-0.047149658,0.4502373487094998,0.26761905828981647,0.0
148,0.181274414,0.41945970413004324,0.277509221639683,0.0
149,0.864868164,0.3676095277065786,0.2834824349129439,0.0
150,0.850372314,0.29668822555530605,0.2845371117648789,0.0
151,0.198669434,0.21030228230506975,0.2799176860598078,0.0
152,-0.297241211,0.11342962735071208,0.2691924801082904,0.0
153,-0.449981689,0.012020290074169347,0.2523066118940746,0.0
154,-0.338897705,-0.08750880789031013,0.22960303594152132,0.0
155,-0.183258057,-0.17880719207707002,0.20180951662444882,0.0
156,-0.110473633,-0.2560819023305654,0.16999407815258039,0.0
157,-0.075378418,-0.31449896379503545,0.13549499795252884,0.0
158,-0.052642822,-0.3504731986138769,0.0998332276884625,0.0
159,-0.039367676,-0.36184340277966265,0.06461545906774205,0.0
160,-0.031738281,-0.3479412481961285,0.03143541364345423,0.0
161,-0.02243042,-0.3095677537490029,0.0017798025425790048,0.0
162,-0.013885498,-0.24889307731509847,-0.02305590590182266,0.0
163,-0.006256104,-0.16929528079559136,-0.04203807073008553,0.0
164,0.003662109,-0.07515256342369156,-0.054449166988734546,0.0
165,0.013275146,0.02839815761581997,-0.05992417247471822,0.0
166,0.020446777,0.13572511446289115,-0.058468329709984425,0.0
167,0.03036499,0.24097824667289924,-0.05045629646780545,0.0
168,0.037231445,0.33836970846165904,-0.03661331442563037,0.0
169,0.050964355,0.4224500259141351,-0.01797955799212246,0.0
170,0.065460205,0.4883714152590848,0.0041406856561219275,0.0
171,0.084991455,0.5321290190036707,0.02824287107952877,0.0
172,0.106811523,0.5507697350090727,0.05269644579213893,0.0
173,0.127563477,0.5425573140109243,0.07582633162404531,0.0
174,0.13885498,0.5070820112871146,0.09599793990624081,0.0
175,0.147399902,0.44530383648474914,0.11170154851866865,0.0
176,0.149841309,0.3595207675949089,0.12163152802029302,0.0
177,0.132751465,0.2532573761569157,0.12475579207614783,0.0
178,0.084075928,0.13107509441735493,0.12037105606117088,0.0
179,0.015716553,-0.001687523038362818,0.10814008956068889,0.0
180,-0.057678223,-0.1392285474451992,0.0881081744746806,0.0
181,-0.11505127,-0.2756275959424606,0.06069739325444457,0.0
182,-0.15838623,-0.4051945765054848,0.02667904833795927,0.0
183,-0.177459717,-0.5227938927935231,-0.012873744237690526,0.0
184,-0.178985596,-0.6241185263597611,-0.056649667932115684,0.0
185,-0.171661377,-0.7058943852814362,-0.10317420341363544,0.0
186,-0.159454346,-0.7660032317316354,-0.15089049633389845,0.0
187,-0.14175415,-0.8035209493501488,-0.19824044500676472,0.0
188,-0.125274658,-0.8186756537711558,-0.24374074002732,0.0
189,-0.110321045,-0.8127363622806729,-0.28604938708985783,0.0
190,-0.096893311,-0.7878472214939818,-0.3240193273990293,0.0
191,-0.079956055,-0.7468245870011582,-0.35673699734258024,0.0
192,-0.070495605,-0.6929347361026141,-0.3835449125487748,0.0
193,-0.065155029,-0.6296689842457089,-0.40404851581436896,0.0
194,-0.058898926,-0.5605308314888957,-0.41810851559758344,0.0
195,-0.049133301,-0.48884688893855666,-0.42582071232597174,0.0
196,-0.040588379,-0.4176101433285331,-0.42748584274577434,0.0
197,-0.036773682,-0.34936095254529204,-0.42357227207958387,0.0
198,-0.033111572,-0.28610821988862956,-0.4146744507465377,0.0
199,-0.026092529,-0.22929055856866856,-0.4014699556568487,0.0
200,-0.021362305,-0.17977500153006137,-0.38467768807492864,0.0
201,-0.021514893,-0.13788899956150225,-0.36501943579402796,0.0
202,-0.021057129,-0.1034800998107314,-0.3431865626005762,0.0
203,-0.018615723,-0.07599679058621876,-0.3198130965128718,0.0
204,-0.016174316,-0.054583535758532586,-0.29545598137947,0.0
205,-0.016174316,-0.03818300815642449,-0.27058276369950035,0.0
206,-0.010528564,-0.02563892334742838,-0.24556653456838418,0.0
207,-0.011138916,-0.015793574137989142,-0.2206875559915003,0.0
208,-0.006408691,-0.00757505590239917,-0.19614068399821136,0.0
209,-0.006713867,-7.015062940376321e-05,-0.1720474629342858,0.0
210,-0.006408691,0.007420173282443796,-0.1484716049240076,0.0
211,-0.004119873,0.015344727022264922,-0.1254364810035033,0.0
212,-0.003662109,0.023886680389144523,-0.10294322997237376,0.0
213,-0.001525879,0.03296897263603681,-0.08098813256012015,0.0
214,0.000915527,0.042279838196753246,-0.059577998202899024,0.0
215,0.005645752,0.051316796849892474,-0.038742465899661405,0.0
216,0.00579834,0.0594465570000028,-0.018542324440373403,0.0
217,0.005493164,0.06597745586217608,0.0009267961472451684,0.0
218,0.00579834,0.07024034460283751,0.019535729754880618,0.0
219,0.005645752,0.0716732104602824,0.037128138895507964,0.0
220,0.008087158,0.06990426203902877,0.053531679397498415,0.0
221,0.010528564,0.06482764915275456,0.06857336929745228,0.0
222,0.020141602,0.05666546648179142,0.08209821928475582,0.0
223,0.033569336,0.04600930413467569,0.09398983136567646,0.0
224,0.064086914,0.03383455870092349,0.10419133353794674,0.0
225,0.056610107,0.021481328213274586,0.11272472179865975,0.0
226,0.061035156,0.010597383091145184,0.11970647736581155,0.0
227,0.05065918,0.0030417012626177964,0.1253572841996976,0.0
228,0.004882813,0.0007512536373059306,0.13000385716320742,0.0
229,-0.016479492,0.005578522615385162,0.1340713448869584,0.0
230,-0.011138916,0.01911169122830854,0.13806548377191735,0.0
231,-0.003967285,0.04249258984129088,0.14254458257521707,0.0
232,-0.011444092,0.07624880699621292,0.14808240094681835,0.0
233,-0.016021729,0.1201560484774955,0.15522393657803127,0.0
234,-0.016174316,0.17314543431510987,0.16443697085223566,0.0
235,-0.013885498,0.23326831408259618,0.17606289228482164,0.0
236,-0.007171631,0.2977283343957266,0.19027078454388768,0.0
237,-0.006103516,0.36298679277408075,0.20701899395912488,0.0
238,-0.006561279,0.4249427760848999,0.22602834260976407,0.0
239,-0.001068115,0.4791843168204396,0.24677079665874319,0.0
240,0.00579834,0.521300884471957,0.2684767132891895,0.0
241,-0.018615723,0.5472410021421709,0.29016275701751876,0.0
242,-0.065002441,0.5536916690847516,0.3106811850068537,0.0
243,0.006256104,0.5384484971230948,0.32878943917687614,0.0
244,0.343017578,0.5007369548268024,0.3432368352507802,0.0
245,1.0496521,0.4414371099648483,0.3528626280469886,0.0
246,0.710144043,0.3631618382100741,0.35669707325348954,0.0
247,-0.008087158,0.2701503738607588,0.354054921950967,0.0
248,-0.410003662,0.16797040576526423,0.3446100809151545,0.0
249,-0.415649414,0.06306442115374536,0.32844179310721144,0.0
250,-0.249481201,-0.037790143152557805,0.30604656950843756,0.0
251,-0.12802124,-0.12802795909927323,0.2783150792237427,0.0
252,-0.080108643,-0.20178550004862889,0.24647772775021695,0.0
253,-0.062408447,-0.25429401386597583,0.21202568250024917,0.0
254,-0.045623779,-0.2821596177618802,0.17661545467265125,0.0
255,-0.033416748,-0.28353002894899226,0.14196520676632082,0.0
256,-0.019073486,-0.2581561416602749,0.1097502456104584,0.0
257,-0.011444092,-0.20736081875058252,0.0815040815283322,0.0
258,-0.004425049,-0.13392879158613963,0.05853022928494496,0.0
259,0.003356934,-0.04193153753502082,0.041828734334807875,0.0
260,0.012054443,0.06349987973279209,0.03204030464199023,0.0
261,0.020599365,0.1764422048873516,0.029409947041391892,0.0
262,0.031738281,0.29047684942776714,0.03377114761463672,0.0
263,0.04196167,0.39900601890375775,0.04455087441706884,0.0
264,0.059356689,0.4955778786301338,0.060794981817300885,0.0
265,0.073547363,0.5742098594784816,0.08121291901480487,0.0
266,0.095825195,0.62969801967324,0.10423995650788775,0.0
267,0.117797852,0.657898935190054,0.12811442249073798,0.0
268,0.13885498,0.655969283283298,0.15096668671743807,0.0
269,0.157165527,0.622547603174221,0.17091586968086286,0.0
270,0.170593262,0.5578631927256898,0.18616954683777187,0.0
271,0.178222656,0.46375920203886845,0.19512114474082085,0.0
272,0.166778564,0.34362104700571283,0.19643939101742414,0.0
273,0.124664307,0.20220741101236744,0.1891441928125803,0.0
274,0.054626465,0.04538912527961301,0.17266377803188807,0.0
275,-0.035705566,-0.12018960599787146,0.1468689042565829,0.0
276,-0.1171875,-0.28750419288035206,0.1120814167190934,0.0
277,-0.173950195,-0.4495664240182721,0.06905631763239936,0.0
278,-0.206756592,-0.5998312229248082,0.01893859297662438,0.0
279,-0.218963623,-0.7325607678242282,-0.03680193708215875,0.0
280,-0.21697998,-0.8431187266447443,-0.09645278953556854,0.0
281,-0.202178955,-0.9281757160732185,-0.1581519042738791,0.0
282,-0.187530518,-0.9858167639485975,-0.2199850211610338,0.0
283,-0.171508789,-1.0155509813209822,-0.28008084199595096,0.0
284,-0.15411377,-1.0182316925076509,-0.33669813136120585,0.0
285,-0.137481689,-0.9959013001794614,-0.3882999760630149,0.0
286,-0.121459961,-0.9515790093285963,-0.43361173824650595,0.0
287,-0.104370117,-0.8890113390809224,-0.47166065464901097,0.0
288,-0.08605957,-0.8124054048331807,-0.5017964279697481,0.0
289,-0.074920654,-0.7261635893769042,-0.5236934268869301,0.0
290,-0.065460205,-0.6346357690006064,-0.5373361863280814,0.0
291,-0.055236816,-0.5419020436498969,-0.5429907315602277,0.0
292,-0.045471191,-0.4515952857786938,-0.5411648149326685,0.0
293,-0.038452148,-0.36676912021375097,-0.53256045251565,0.0
294,-0.030975342,-0.28981345768731354,-0.5180221992494451,0.0
295,-0.025939941,-0.2224165972239977,-0.49848443858071295,0.0
296,-0.026245117,-0.1655702744650928,-0.4749206253707102,0.0
297,-0.023803711,-0.11961191941085964,-0.44829695099981814,0.0
298,-0.023651123,-0.08429685066364745,-0.41953234006584045,0.0
299,-0.023956299,-0.05889222364117236,-0.3894660826341108,0.0
300,-0.023498535,-0.04228428549177038,-0.3588337979274455,0.0
301,-0.023651123,-0.03309083157697587,-0.32825185468857165,0.0
302,-0.018768311,-0.029771619327693635,-0.2982098738632041,0.0
303,-0.018615723,-0.03073075157219901,-0.2690705356950771,0.0
304,-0.016174316,-0.03440653801296513,-0.24107562046893197,0.0
305,-0.013885498,-0.03934591033241353,-0.21435703353949548,0.0
306,-0.012359619,-0.0442619577239485,-0.18895149433369313,0.0
307,-0.00869751,-0.048074469560346215,-0.1648175918313173,0.0
308,-0.006408691,-0.049934463348263895,-0.1418540076527479,0.0
309,-0.004119873,-0.049234499607705214,-0.1199178622830993,0.0
310,-0.001525879,-0.045607114318300335,-0.09884232916149421,0.0
311,0.003509521,-0.03891392771444949,-0.07845286455876264,0.0
312,0.000762939,-0.029227931223776666,-0.058581599066147724,0.0
313,0.001068115,-0.016811146523831248,-0.03907961254608052,0.0
314,0.004577637,-0.00208935486422529,-0.01982695601024558,0.0
315,0.005493164,0.014374987765748956,-0.0007403844093433162,0.0
316,0.005645752,0.03191109727026305,0.018221176094740287,0.0
317,0.003356934,0.04976939950626591,0.0370533787621519,0.0
318,0.005493164,0.06715256025284072,0.05570538074659036,0.0
319,0.007781982,0.08324852103113503,0.07408091859699041,1.0
320,0.00793457,0.09726605497642625,0.0920415385219064,0.0
321,0.008544922,0.10847313162052388,0.1094120032037895,0.0
322,0.01083374,0.11623797007071042,0.12598789450327466,0.0
323,0.008239746,0.12007211917959607,0.1415454000867613,0.0
324,0.009460449,0.11967426454663481,0.1558532067035382,0.0
325,0.008239746,0.11497274601900818,0.1686863204502411,0.0
326,0.005645752,0.10616399305496443,0.17984149325313706,0.0
327,0.010986328,0.09374326911207236,0.18915375468941664,0.0
328,0.016174316,0.07852329945473813,0.19651333081823644,0.0
329,0.045318604,0.06163563807524379,0.20188198277116168,0.0
330,0.063781738,0.04450924123589127,0.20530753315062356,0.0
331,0.057067871,0.02882107759362807,0.20693510246695224,0.0
332,0.06439209,0.016415213330927027,0.2070134112999094,0.0
333,0.031738281,0.009189916970038323,0.20589449584696828,0.0
334,-0.00289917,0.00895665753146388,0.2040254082719158,0.0
335,-0.018920898,0.01727962043708081,0.20193096413295866,0.0
336,-0.009155273,0.03530846959129266,0.20018733260893473,0.0
337,-0.010223389,0.06361962977962576,0.1993871571833752,0.0
338,-0.021057129,0.10208203680845457,0.20009782813904836,0.0
339,-0.021057129,0.14976243650662102,0.20281539447581132,0.0
340,-0.018310547,0.20488340744254563,0.20791732471863547,0.0
341,-0.016326904,0.26484454957329095,0.21561785339306128,0.0
342,-0.011749268,0.3263136943476609,0.22592994185271653,0.0
343,-0.010986328,0.3853905519682439,0.23863790013909106,0.0
344,-0.004272461,0.43784002097767316,0.2532844284101829,0.0
345,-0.001525879,0.4793865615912901,0.2691752195080095,0.0
346,-0.012512207,0.5060546731071234,0.28540330458897833,0.0
347,-0.067443848,0.5145336815381494,0.3008940142658756,0.0
348,-0.022888184,0.5025376601584898,0.3144697623327651,0.0
349,0.251464844,0.4691232038469397,0.3249318257104568,0.0
350,0.959472656,0.41491980088224495,0.3311539029350144,0.0
351,0.818023682,0.34222399333343756,0.33217965160005,0.0
352,0.051422119,0.2549177789058282,0.32731417693128856,0.0
353,-0.404205322,0.15820003142917635,0.3161985252110603,0.0
354,-0.430297852,0.05816106375833053,0.29885752748929884,0.0
355,-0.270385742,-0.038734055890325705,0.27571492077049065,0.0
356,-0.136108398,-0.12617548365153086,0.24757451201128536,0.0
357,-0.08605957,-0.19848630379783752,0.21557069593914374,0.0
358,-0.061340332,-0.25100720745607324,0.1810947633912369,0.0
359,-0.045471191,-0.28037116873593027,0.14570487299862353,0.0
360,-0.033569336,-0.28466750743022584,0.1110276620866928,0.0
361,-0.021209717,-0.26350382694666763,0.0786587706089841,0.0
362,-0.014190674,-0.21797856814037742,0.05006846497282331,0.0
363,-0.006713867,-0.1505783637973427,0.026517336578474902,0.0
364,0.001983643,-0.06501421804076847,0.008985858323251644,0.0
365,0.008087158,0.03399049382779194,-0.0018795112636762776,0.0
366,0.015869141,0.14094856230205105,-0.0058019486951523536,0.0
367,0.028991699,0.24988362759118193,-0.002890712493771156,0.0
368,0.042114258,0.35462147242372183,0.006361765083144752,0.0
369,0.055389404,0.4490886778734101,0.021101684145889418,0.0
370,0.06652832,0.5276091275820172,0.040153525697992465,0.0
371,0.076293945,0.5851881366301284,0.06207589886734759,0.0
372,0.095825195,0.6177729999146125,0.08523134387277224,0.0
373,0.119018555,0.6224776911463542,0.10786722914711715,0.0
374,0.138702393,0.5977585805985686,0.12820424963602706,0.0
375,0.156860352,0.5435278379174032,0.14452841795032506,0.0
376,0.159759521,0.46119223922099684,0.15528189993262917,0.0
377,0.155029297,0.3536079393215742,0.15914767100129712,0.0
378,0.133972168,0.22494666543296699,0.15512286746410175,0.0
379,0.068359375,0.08047561987770585,0.14257598306230185,0.0
380,-0.009918213,-0.07373841422616471,0.12128379235163445,0.0
381,-0.087127686,-0.23118176471999272,0.09144509032540324,0.0
382,-0.151672363,-0.38527711156080746,0.05366996024577482,0.0
383,-0.191345215,-0.5297666918337999,0.008945162043243214,0.0
384,-0.202026367,-0.6590645631622633,-0.04142186034332418,0.0
385,-0.202484131,-0.7685508110445788,-0.09587617738069977,0.0
386,-0.19744873,-0.8547875742048794,-0.15270036848529384,0.0
387,-0.190734863,-0.9156454410283836,-0.21010523687150146,0.0
388,-0.17074585,-0.9503376135880818,-0.26632009460314743,0.0
389,-0.147247314,-0.9593671269915588,-0.31967692553773386,0.0
390,-0.13885498,-0.9443987157899371,-0.36868361260062416,0.0
391,-0.116882324,-0.908071324228038,-0.41208258113567825,0.0
392,-0.104217529,-0.8537696776536864,-0.4488925228177317,0.0
393,-0.094604492,-0.7853739181663857,-0.4784321956594359,0.0
394,-0.076293945,-0.7070053959810001,-0.5003265385371484,0.0
395,-0.058898926,-0.6227846991497119,-0.5144964161474489,0.0
396,-0.055236816,-0.5366152556259467,-0.5211341734007213,0.0
397,-0.045623779,-0.45200262077103,-0.5206678006180668,0.0
398,-0.045623779,-0.3719160870645285,-0.5137168832341564,0.0
399,-0.037994385,-0.29869578045466505,-0.5010436385272387,0.0
400,-0.027313232,-0.23400524707163578,-0.4835022512846618,0.0
401,-0.023651123,-0.17882691921245142,-0.46198945002696135,0.0
402,-0.025787354,-0.13349583905608214,-0.4373988622276496,0.0
403,-0.026092529,-0.09776553835768192,-0.4105811947054297,0.0
404,-0.014190674,-0.07089895901301105,-0.38231174125199807,0.0
405,-0.016174316,-0.05177676249241248,-0.353266157055528,0.0
406,-0.018920898,-0.03901530235761381,-0.3240048899503996,0.0
407,-0.028381348,-0.03108681626076739,-0.29496614771112406,0.0
408,-0.020904541,-0.026434937825924126,-0.26646682644306136,0.0
409,-0.021057129,-0.023579465475065828,-0.23871044235056477,0.0
410,-0.01373291,-0.021205518428458553,-0.2118008143122649,0.0
411,-0.00869751,-0.018233683971431075,-0.18576005266683515,0.0
412,-0.006408691,-0.013869287537618652,-0.16054932488157736,0.0
413,-0.011291504,-0.007630261360257136,-0.13609088109487963,0.0
414,-0.003814697,0.0006458694468238491,-0.11228991118521728,0.0
415,0.004425049,0.010814593632659027,-0.08905494764895135,0.0
416,0.013275146,0.0224547371844927,-0.06631570755461479,0.0
417,0.000915527,0.03491421605197026,-0.044037468490919766,0.0
418,-0.00289917,0.04736877372008555,-0.022231282701267285,0.0
419,-0.021057129,0.058891337705387334,-0.0009595345140929875,0.0
420,-0.012817383,0.06852967610409302,0.019663467555382244,0.0
421,0.015106201,0.07538965700472813,0.039475986761626024,0.0
422,0.013275146,0.0787204310134824,0.058278348489615266,0.0
423,0.017547607,0.0779965455201278,0.07584705853642466,0.0
424,0.013122559,0.07299092487421399,0.09195285497717723,0.0
425,0.059356689,0.06383222761239425,0.10638164777147453,0.0
426,0.003662109,0.05104039285103744,0.11895696946256927,0.0
427,0.006866455,0.035535149936953773,0.1295622921088326,0.0
428,0.032653809,0.018613777938784312,0.1381613938347555,0.0
429,0.035247803,0.0018961805335734744,0.14481490260459923,0.0
430,0.050506592,-0.012762859707614434,0.14969120681204642,0.0
431,0.048217773,-0.023392366649018406,0.15307010194083015,0.0
432,-0.018615723,-0.028050200588382,0.15533786009240746,0.0
433,-0.028686523,-0.024986344408781606,0.15697290027339533,0.0
434,-0.025787354,-0.012812784219410699,0.1585219161801905,0.0
435,-0.022277832,0.009334185970158587,0.16056714141619524,0.0
436,-0.012817383,0.041654093601438597,0.16368630054955638,0.0
437,-0.013427734,0.08357873118540501,0.16840759668147703,0.0
438,-0.03112793,0.13371686811639022,0.17516274433570164,0.0
439,-0.026245117,0.18985683784877272,0.18424153568166735,0.0
440,-0.016174316,0.24903384231662873,0.19575171233288755,0.0
441,-0.024871826,0.30766533135670615,0.20958798062965972,0.0
442,0.000762939,0.361753416740523,0.22541381879981126,0.0
443,-0.000457764,0.4071480659330473,0.24265924306504033,0.0
444,-0.003967285,0.4398590711977787,0.260536904613801,0.0
445,-0.056152344,0.45639876551987585,0.27807777713152476,0.0
446,-0.083312988,0.4541311645032001,0.2941862712416548,0.0
447,0.062713623,0.4315962477724617,0.3077128721252439,0.0
448,0.570220947,0.38877026179971985,0.3175403171497743,0.0
449,0.975341797,0.32721637448142427,0.32267695081351,0.0
450,0.415344238,0.2500813128874497,0.32234851808018294,0.0
451,-0.142211914,0.16191115795151814,0.31607802497361526,0.0
452,-0.436248779,0.06829448319516705,0.30374339363912345,0.0
453,-0.397033691,-0.024618917626961175,0.28560504823848604,0.0
454,-0.233917236,-0.11064957377680032,0.2622998624808174,0.0
455,-0.116577148,-0.18409496158915897,0.23480276356843371,0.0
456,-0.092468262,-0.24015498802970128,0.20436130523201324,0.0
457,-0.065307617,-0.27524586111858185,0.17241091784718482,0.0
458,-0.054168701,-0.28719368179286076,0.1404793218809226,0.0
459,-0.024719238,-0.27531329733693444,0.11008820012034881,0.0
460,-0.009307861,-0.24038577212796636,0.08265916295604685,0.0
461,-0.006561279,-0.18455154288989262,0.059429673067246565,0.0
462,0.006713867,-0.11113745171091624,0.04138314762906737,0.0
463,0.015106201,-0.02443523623012797,0.02919606846988941,0.0
464,0.022888184,0.07055262060357531,0.023203689150785266,0.0
465,0.030212402,0.1683858993563695,0.023384873279195778,0.0
466,0.034942627,0.26346683230029644,0.029365735118813616,0.0
467,0.04119873,0.35031757452053486,0.04044106223917375,0.0
468,0.056304932,0.42384631549968554,0.055611946213091824,0.0
469,0.063934326,0.47959400221898996,0.07363758879681777,0.0
470,0.076446533,0.5139536631096187,0.0930988454834218,0.0
471,0.090942383,0.5243539624807325,0.11247068408557981,0.0
472,0.106658936,0.509398205888616,0.13020035986005918,0.0
473,0.117797852,0.4689499378069835,0.14478774976928238,0.0
474,0.122833252,0.40415693617131976,0.15486397943993974,0.0
475,0.12298584,0.3174072129414556,0.15926427246552516,0.0
476,0.11428833,0.21221385529606357,0.15709092515715678,0.0
477,0.077667236,0.09303025614636279,0.14776253859168645,0.0
478,0.010681152,-0.034996719323083444,0.13104619210079602,0.0
479,-0.062866211,-0.16632139332454082,0.10707015712372712,0.0
480,-0.122375488,-0.29532124115822717,0.0763160115599078,0.0
481,-0.157775879,-0.4166212430538874,0.039590527859063744,0.0
482,-0.175323486,-0.5253944815166977,-0.002020700840152243,0.0
483,-0.177764893,-0.6176152819278653,-0.04721448083328997,0.0
484,-0.170288086,-0.6902467440884279,-0.09454155881062223,0.0
485,-0.156097412,-0.7413519326667103,-0.14248332429859625,0.0
486,-0.142364502,-0.770125892829742,-0.18952840047421096,0.0
487,-0.123901367,-0.7768528841383795,-0.23424421940652104,0.0
488,-0.109405518,-0.7627990293154971,-0.2753394355424089,0.0
489,-0.094451904,-0.7300545956346893,-0.31171405408913694,0.0
490,-0.078430176,-0.6813423176847929,-0.3424953096956711,0.0
491,-0.061798096,-0.6198086899254083,-0.36705850720377653,0.0
492,-0.054321289,-0.5488142693421528,-0.38503313196073874,0.0
493,-0.045623779,-0.4717370280762803,-0.3962954772429445,0.0
494,-0.036010742,-0.3917999978723239,-0.40094976932738274,0.0
495,-0.030670166,-0.3119312033578469,-0.39930026926519085,0.0
496,-0.021362305,-0.23466054247110968,-0.39181709084108685,0.0
497,-0.016326904,-0.16205511849624488,-0.3790985130775142,0.0
498,-0.01373291,-0.09569173098959777,-0.3618324128514767,0.0
499,-0.011444092,-0.03666289004750349,-0.34075913556448506,0.0
500,-0.004882813,0.014389098312143023,-0.31663769953485493,0.0
501,-0.001831055,0.057216657533847776,-0.2902167349824321,0.0
502,-0.001373291,0.09189738334182254,-0.262211033304246,0.0
503,0.000305176,0.11875778239113732,-0.23328406543448704,0.0
504,0.003356934,0.13829728962851026,-0.2040363515114726,0.0
505,0.00579834,0.15111875364971777,-0.17499915311348996,0.0
506,0.008087158,0.1578704509855912,-0.14663263348472472,0.0
507,0.010375977,0.15920332440723653,-0.11932740363616694,0.0
508,0.003204346,0.15574566118395117,-0.09340824832575327,0.0
509,0.003509521,0.14809593171782437,-0.06913880368700573,0.0
510,0.005950928,0.13683302189487323,-0.0467260317973988,0.0
511,0.005340576,0.12254158532866907,-0.02632350106545583,0.0
512,0.005645752,0.10584871580510984,-0.008032730192788919,0.0
513,0.008087158,0.08746668136757475,0.008097819749345566,0.0
514,0.015869141,0.06823519991351294,0.022076129638332824,0.0
515,0.026855469,0.049155797840556466,0.033971973296595626,0.0
516,0.053100586,0.031410335653885575,0.04392337632705663,0.0
517,0.052032471,0.016356066310833958,0.05214289930509151,0.0
518,0.053100586,0.00549095282361281,0.058922116810575256,0.0
519,0.055847168,0.00038565745316256755,0.0646324677441345,0.0
520,0.012054443,0.002582554008647507,0.06972067537176267,0.0
521,-0.013885498,0.013466826809552551,0.0746972259044814,0.0
522,-0.011444092,0.03411938160594542,0.08011695703414724,0.0
523,-0.001373291,0.0651649430774559,0.08655159212757788,0.0
524,-0.011291504,0.1066306722330572,0.09455496361134981,0.0
525,-0.016326904,0.15783088931514655,0.10462258682017084,0.0
526,-0.013427734,0.21729249323853267,0.11714808001142774,0.0
527,-0.011138916,0.2827337825014767,0.1323796148949372,0.0
528,-0.004272461,0.3511066246581104,0.15038007807193662,0.0
529,-0.001678467,0.41870822626998,0.17099488241314972,0.0
530,-0.001678467,0.48136418787662005,0.1938313472228402,0.0
531,0.000457764,0.5346792259588206,0.2182532351072816,0.0
532,0.000762939,0.5743459899937031,0.2433933694333245,0.0
533,-0.043029785,0.5964958018669756,0.2681862417740626,0.0
534,-0.061645508,0.5980678107064068,0.29142113600556313,0.0
535,0.063171387,0.5771647737358743,0.311814519913631,0.0
536,0.48538208,0.5333545329605355,0.32809826029914246,0.0
537,1.040344238,0.467868349372324,0.33911764687844986,0.0
538,0.547790527,0.38364674645036967,0.34393055701547653,0.0
539,-0.061798096,0.2851989484597116,0.34189708134005303,0.0
540,-0.403137207,0.17827607272296508,0.332748580019663,0.0
541,-0.394744873,0.06940011224972448,0.3166271563049494,0.0
542,-0.241088867,-0.034679134077866526,0.29409064748665303,0.0
543,-0.133056641,-0.1275215762820745,0.2660831941253122,0.0
544,-0.086364746,-0.20346753709393417,0.2338757745220795,0.0
545,-0.062561035,-0.25800562590137,0.1989838741368919,0.0
546,-0.046691895,-0.28802431429689546,0.16307059621957254,0.0
547,-0.035705566,-0.2919489234520377,0.12784341381449188,0.0
548,-0.028991699,-0.2697741536252364,0.09495192109094153,0.0
549,-0.016479492,-0.22300621313263946,0.06589275374027256,0.0
550,-0.006408691,-0.15452989649945545,0.041926555634712245,0.0
551,-0.001678467,-0.06841575036543296,0.024010608215050664,0.0
552,0.003356934,0.030318569649197047,0.012749582769364451,0.0
553,0.013122559,0.1359800263268772,0.008365856404311839,0.0
554,0.026397705,0.24249359391043157,0.010689952928147888,0.0
555,0.037689209,0.3437067940166795,0.01917090936188601,0.0
556,0.049285889,0.43369516778395273,0.03290569213423851,0.0
557,0.064239502,0.5070582374108655,0.050686156418833644,0.0
558,0.083618164,0.5591948535051817,0.07106142689799412,0.0
559,0.106811523,0.5865459576204232,0.09241296021390619,0.0
560,0.129394531,0.5867920232331324,0.11303892711036025,0.0
561,0.144500732,0.5589922291510923,0.13124394786255428,0.0
562,0.152282715,0.5036533042917173,0.1454296789922033,0.0
563,0.149841309,0.42271842146037186,0.15418136049503067,0.0
564,0.139007568,0.3194707361780311,0.15634528460297356,0.0
565,0.102386475,0.19835209123331887,0.15109233144221365,0.0
566,0.032196045,0.06470466381939266,0.13796330559377912,0.0
567,-0.048828125,-0.07554880639080186,0.11689283320248316,0.0
568,-0.112609863,-0.21626327899577505,0.08821001339572827,0.0
569,-0.152282715,-0.35144003707822463,0.05261575020811571,0.0
570,-0.176544189,-0.4755757967624461,0.011138529977132166,0.0
571,-0.185394287,-0.583964656547395,-0.03492788385224108,0.0
572,-0.180358887,-0.6729309225477633,-0.08410001469659575,0.0
573,-0.168609619,-0.7399787263342843,-0.13478782933382627,0.0
574,-0.153198242,-0.783853009008129,-0.18537954974441648,0.0
575,-0.136108398,-0.8045146526480493,-0.23432245955354247,0.0
576,-0.119018555,-0.8030394159629315,-0.28019477975312296,0.0
577,-0.103149414,-0.7814553694507174,-0.3217647561378934,0.0
578,-0.089874268,-0.7425365632365816,-0.3580343607288818,0.0
579,-0.073852539,-0.689571793744351,-0.3882663270640013,0.0
580,-0.063018799,-0.6261268229033481,-0.4119944991320384,0.0
581,-0.055389404,-0.5558165830139501,-0.4290185858214739,0.0
582,-0.048065186,-0.4821011289316302,-0.43938531403400705,0.0
583,-0.038604736,-0.4081157371620111,-0.4433586273662973,0.0
584,-0.035705566,-0.33654195086165895,-0.44138197143628966,0.0
585,-0.033111572,-0.2695228330807722,-0.434035850889541,0.0
586,-0.026245117,-0.20862244023461993,-0.4219937623719546,0.0
587,-0.021209717,-0.15482672077182147,-0.40597933845444434,0.0
588,-0.021362305,-0.10858077942927137,-0.3867271219405065,0.0
589,-0.023956299,-0.06985575012332022,-0.3649488720953407,0.0
590,-0.021209717,-0.03823737200458997,-0.3413067258328932,0.0
591,-0.021057129,-0.013027770969097827,-0.31639393681041084,0.0
592,-0.016326904,0.006648056368191095,-0.2907233315798546,0.0
593,-0.018768311,0.021739001815914052,-0.2647230901437904,0.0
594,-0.010986328,0.03317478573900615,-0.23873900768282097,0.0
595,-0.01159668,0.04178870805230605,-0.21304204407586733,0.0
596,-0.011138916,0.04826036577968091,-0.18783972722115572,0.0
597,-0.009307861,0.05308095647424363,-0.16328984605999491,0.0
598,-0.006561279,0.0565422531996533,-0.1395148450575502,0.0
599,-0.003814697,0.05874883147398943,-0.11661540636944626,0.0
600,-0.001220703,0.059651673434990116,-0.09468187040618387,0.0
601,0.000762939,0.05909992272866982,-0.07380238936370498,0.0
602,0.000915527,0.05690638491070263,-0.054067017558612235,0.0
603,0.000915527,0.052921409089197395,-0.03556730025155315,0.0
604,0.000915527,0.04710905175654508,-0.018391311548702254,0.0
605,0.001068115,0.039618884495362355,-0.0026144961390798293,0.0
606,0.010681152,0.030846429992229585,0.011712923929165217,0.0
607,0.021972656,0.02147500462230162,0.024580818961959978,0.0
608,0.053863525,0.01249182735833981,0.03603476581758431,0.0
609,0.056762695,0.005171907468279953,0.046190550583316545,0.0
610,0.057067871,0.0010248700396781746,0.055245474850087066,0.0
611,0.050811768,0.0017028733528015386,0.06348431318604403,0.0
612,0.007019043,0.00887209312160369,0.07127793509372472,0.0
613,-0.018310547,0.02405533253109407,0.07907305258235242,0.0
614,-0.019226074,0.048458169241556104,0.08737228220296277,0.0
615,-0.006561279,0.08279459005014544,0.0967046517802615,0.0
616,-0.01373291,0.12712962476247977,0.10758772112396234,0.0
617,-0.023651123,0.1807561499384832,0.12048349554834115,0.0
618,-0.021514893,0.24212134388621115,0.13575119094331328,0.0
619,-0.012664795,0.3088156449628487,0.15360059507128174,0.0
620,-0.006561279,0.37763352222279073,0.17405021508215585,0.0
621,-0.004119873,0.4447108529067001,0.19689456188753746,0.0
622,0.000762939,0.5057383400967995,0.22168475950322586,0.0
623,0.003509521,0.5562444151924875,0.24772615700257417,0.0
624,0.001068115,0.5919345873608833,0.2740957508240684,0.0
625,-0.046386719,0.6090672466862087,0.2996809907891587,0.0
626,-0.04699707,0.6048384031468735,0.3232399383143057,0.0
627,0.122833252,0.5777395285528276,0.3434807557039981,0.0
628,0.665435791,0.5278438597782446,0.35915612111723827,0.0
629,1.094207764,0.4569700652034794,0.3691654723340604,0.0
630,0.381164551,0.36867531852577534,0.3726553743895676,0.0
631,-0.254669189,0.26805101883461574,0.36910662639174574,0.0
632,-0.463562012,0.16133356159014214,0.3583970172404111,0.0
633,-0.356140137,0.055384830023965964,0.34083142935387933,0.0
634,-0.180969238,-0.04287829044218081,0.31713567104878104,0.0
635,-0.105895996,-0.12702850590415463,0.2884155012528255,0.0
636,-0.038757324,-0.19159171061880317,0.25608634205062253,0.0
637,-0.029296875,-0.2324006096012468,0.22178148571151082,0.0
638,-0.063476563,-0.24682956185936855,0.1872473400502742,0.0
639,-0.080108643,-0.2339136128137983,0.15423395038147583,0.0
640,-0.049591064,-0.19436033810038728,0.12438819471413075,0.0
641,-0.012664795,-0.1304659329166529,0.09915597933359324,0.0
642,-0.006561279,-0.04594913845518489,0.07969858801595743,1.0
643,0.064544678,0.054281394078259784,0.06682709401579935,0.0
644,0.04989624,0.16440941552599944,0.06095746406524816,0.0
645,0.057830811,0.27802625085444627,0.062087737128518145,0.0
646,0.013275146,0.3884635155999989,0.06979753400765518,0.0
647,0.032348633,0.4891303390277703,0.0832692102901181,0.0
648,0.079498291,0.5738439160945646,0.10132920707002963,0.0
649,0.106964111,0.6371426249124786,0.1225075154571331,0.0
650,0.114135742,0.6745699040421833,0.14511255822906455,0.0
651,0.164489746,0.6829156365383514,0.1673181485395036,0.0
652,0.133056641,0.6604011969100313,0.18725852885022623,0.0
653,0.110473633,0.606795268648459,0.2031268989964151,0.0
654,0.138549805,0.523450014400569,0.21327240181248144,0.0
655,0.16784668,0.41325072110510125,0.21629031880987187,0.0
656,0.136566162,0.2804762697810175,0.21110027735561618,0.0
657,0.110931396,0.13057291024176026,0.19700761682407403,0.0
658,0.057067871,-0.03014957902114547,0.1737437574786344,0.0
659,-0.111846924,-0.19488223272994867,0.14148252746929502,0.0
660,-0.177612305,-0.35671640296648066,0.10083095136194739,0.0
661,-0.196838379,-0.5090468866504508,0.05279490114664816,0.0
662,-0.230102539,-0.6459452674286638,-0.001277962713772507,0.0
663,-0.215759277,-0.7624735727195358,-0.059773686443982316,0.0
664,-0.164489746,-0.854916283693247,-0.12090030792343338,0.0
665,-0.151672363,-0.920918800823424,-0.18278256075898675,0.0
666,-0.214385986,-0.9595302518424011,-0.2435565696638059,0.0
667,-0.185089111,-0.971156382598458,-0.3014586115825918,0.0
668,-0.145111084,-0.9574338126681307,-0.3549029137783959,0.0
669,-0.116729736,-0.9210408578074445,-0.402544604943989,0.0
670,-0.10055542,-0.8654630460674887,-0.4433252301924919,0.0
671,-0.086975098,-0.7947331379570229,-0.476499604514613,0.0
672,-0.079803467,-0.7131653283662344,-0.5016441106917078,0.0
673,-0.065460205,-0.6251013458402352,-0.5186477337934128,0.0
674,-0.05065918,-0.5346829675638709,-0.5276880773391871,0.0
675,-0.045776367,-0.4456617175801552,-0.5291952829389793,0.0
676,-0.040588379,-0.3612526508978025,-0.5238071702962559,0.0
677,-0.035858154,-0.28403537899008935,-0.5123190439990309,0.0
678,-0.030822754,-0.2159020492614523,-0.49563150620588986,0.0
679,-0.03326416,-0.15804905487093016,-0.47469930960524975,0.0
680,-0.02822876,-0.11100698083563015,-0.4504838315151456,0.0
681,-0.026397705,-0.07470175897526532,-0.4239112008084046,0.0
682,-0.023651123,-0.04853920603982895,-0.39583751675832074,0.0
683,-0.020904541,-0.031504987311942186,-0.36702200994547207,0.0
684,-0.018615723,-0.022272445847446413,-0.33810844795984635,0.0
685,-0.023651123,-0.01931149900963968,-0.3096146090387801,0.0
686,-0.023956299,-0.020992790209282824,-0.28192925017225196,0.0
687,-0.018615723,-0.02568242083819893,-0.2553156901081113,0.0
688,-0.018615723,-0.03182385197308526,-0.22992091594462818,0.0
689,-0.014801025,-0.038004913069656004,-0.20578900588027788,0.0
690,-0.011291504,-0.04300916828905554,-0.18287763619484523,0.0
691,-0.003967285,-0.04585201898124974,-0.16107649545305716,0.0
692,-0.008850098,-0.04580274337273699,-0.1402265432980467,0.0
693,-0.00869751,-0.04239412602307793,-0.12013920047736772,0.0
694,-0.006408691,-0.035421419199902424,-0.10061471603209536,0.0
695,-0.002288818,-0.024932210308389345,-0.08145910693600537,0.0
696,-0.003967285,-0.011208486565613435,-0.06249919372278275,0.0
697,-0.006561279,0.005258124301475625,-0.043595359302964425,0.0
698,-0.003814697,0.023797270251956062,-0.024651737573546897,0.0
699,-0.000457764,0.04359653606014642,-0.0056235965579782025,0.0
700,0.003356934,0.06374354716135817,0.013478275035131718,0.0
701,0.00579834,0.08327314020742264,0.032586328032865874,0.0
702,0.003204346,0.10121901586744331,0.05157826254553972,0.0
703,0.003356934,0.11666901251326053,0.07028233034533786,0.0
704,0.005645752,0.1288227946202819,0.0884858979059159,0.0
705,0.008392334,0.13705027418980284,0.1059471427303989,0.0
706,0.010681152,0.14094843255983597,0.12240963205009539,0.0
707,0.010681152,0.14039342445737785,0.13761937391309445,0.0
708,0.012969971,0.13558403333381364,0.15134373378971688,0.0
709,0.020599365,0.127071812692359,0.16339137953044625,0.0
710,0.032196045,0.11577267759675916,0.17363216390019431,0.0
711,0.066680908,0.10295443646344853,0.18201559315285706,0.0
712,0.061798096,0.09019505194620665,0.18858628987053566,0.0
713,0.067596436,0.07930771007844284,0.19349468567840492,0.0
714,0.067749023,0.07223141618952925,0.19700114215009787,0.0
715,0.014648438,0.07088982136520339,0.19947187021096707,0.0
716,-0.013580322,0.07702580896933767,0.20136545299713116,0.0
717,-0.016479492,0.09202409718446569,0.20320947976627932,0.0
718,-0.009002686,0.11673761671647834,0.20556771043737,0.0
719,-0.014038086,0.15133490292171115,0.2089991973740427,0.0
720,-0.019836426,0.1951851773665691,0.21401176050747173,0.0
721,-0.019836426,0.24679576029700478,0.2210130362674718,0.0
722,-0.011444092,0.30381347832974404,0.23026293301316858,0.0
723,-0.008850098,0.3630979684135931,0.24183168419402862,0.0
724,-0.003662109,0.42087023055887607,0.255567761879859,0.0
725,-0.001525879,0.4729345380562911,0.27107966975722825,0.0
726,-0.001220703,0.5149660319209337,0.2877350585097863,0.0
727,-0.007629395,0.5428501084521856,0.30467968992686617,0.0
728,-0.066223145,0.5530530509933357,0.32087751580745016,0.0
729,-0.05355835,0.5429960918405108,0.335171526398097,0.0
730,0.163726807,0.5113969161968531,0.3463630405437602,0.0
731,0.798034668,0.4585339726672696,0.3533047421372927,0.0
732,1.00769043,0.38638331817249816,0.3550001223994639,0.0
733,0.217132568,0.2985830950671795,0.35069951659774207,0.0
734,-0.358123779,0.20020501068559948,0.33998153479307935,0.0
735,-0.451812744,0.09735276548194907,0.3228093898325098,0.0
736,-0.303344727,-0.00335287579277848,0.2995547640701258,0.0
737,-0.153656006,-0.09532350941420584,0.2709866194961465,0.0
738,-0.10055542,-0.17251536870367304,0.2382272004875934,0.0
739,-0.077667236,-0.22985602227074106,0.20268109403223922,0.0
740,-0.059204102,-0.2635617764656258,0.1659451304505456,0.0
741,-0.045623779,-0.2713402044905395,0.1297073809665057,0.0
742,-0.03326416,-0.25248303292376095,0.09564304722533744,0.0
743,-0.022125244,-0.20786034147640842,0.06531407858053628,0.0
744,-0.009002686,-0.13982974885861754,0.04007817530730538,0.0
745,0.003356934,-0.052075171643735776,0.021011603119742393,0.0
746,0.012969971,0.0506104600411856,0.008849052345390934,0.0
747,0.022735596,0.1625849918426758,0.0039426783968611,0.0
748,0.034942627,0.27764690589883406,0.0062414835834180005,0.0
749,0.04486084,0.3893438495045543,0.015291344931637463,0.0
750,0.055847168,0.4912891169432848,0.0302552409311838,0.0
751,0.070495605,0.5774755568861263,0.049952552148079546,0.0
752,0.087280273,0.6425760313069766,0.0729156723653258,0.0
753,0.105133057,0.6822187751410648,0.09746153836424805,0.0
754,0.125274658,0.6932250524682244,0.12177505036634989,0.0
755,0.143585205,0.6737957707342411,0.14400071509432102,0.0
756,0.15914917,0.6236336839380288,0.1623382295798925,0.0
757,0.169219971,0.5439889855166327,0.17513719442400588,0.0
758,0.169067383,0.43761889329466575,0.1809857828717271,0.0
759,0.146026611,0.3086565455814397,0.17878809572933227,0.0
760,0.085449219,0.16239118368990244,0.1678252033342281,0.0
761,0.002593994,0.004969786625179773,0.1477955971566837,0.0
762,-0.080718994,-0.1569609713716905,0.1188319780843701,0.0
763,-0.144500732,-0.31664596818822827,0.08149294517563785,0.0
764,-0.18371582,-0.4676148985501979,0.03673006506692701,0.0
765,-0.204315186,-0.6040457697543671,-0.014167237626452223,0.0
766,-0.207061768,-0.7210705120772634,-0.06964478845202707,0.0
767,-0.199737549,-0.8150016223455978,-0.1279692934179555,0.0
768,-0.184936523,-0.8834676661529841,-0.1873202995583109,0.0
769,-0.168457031,-0.9254546999200041,-0.24588219253797972,0.0
770,-0.1512146,-0.9412589936349313,-0.301930395862221,0.0
771,-0.13381958,-0.9323630290966581,-0.35390683730453243,0.0
772,-0.120239258,-0.9012512406430476,-0.4004809462545418,0.0
773,-0.106964111,-0.8511843354876603,-0.44059379057950765,0.0
774,-0.091247559,-0.7859515072316919,-0.4734843181278718,0.0
775,-0.078735352,-0.7096188055174589,-0.4986979273515117,0.0
776,-0.067443848,-0.6262897473770412,-0.5160786751320555,0.0
777,-0.057983398,-0.5398913117860011,-0.5257472876731875,0.0
778,-0.05279541,-0.4539950583951199,-0.5280677462972808,0.0
779,-0.046081543,-0.37167954518914637,-0.5236055688082636,0.0
780,-0.038299561,-0.29543677071558294,-0.5130810119423239,0.0
781,-0.033416748,-0.2271222774611331,-0.49732031042782787,0.0
782,-0.028533936,-0.1679459790558464,-0.4772077833909776,0.0
783,-0.028533936,-0.11849876873902546,-0.4536412237654311,0.0
784,-0.028839111,-0.07880852612511673,-0.4274924846601204,0.0
785,-0.026092529,-0.04841826437786924,-0.39957462946824834,0.0
786,-0.021514893,-0.02647886919454271,-0.37061645923305375,0.0
787,-0.018768311,-0.011849161952902032,-0.34124470860050526,0.0
788,-0.018920898,-0.0031967726244103364,-0.3119737419987741,0.0
789,-0.016174316,0.0009056377009984441,-0.28320220556178566,0.0
790,-0.01373291,0.0018930724576921888,-0.2552158071263379,0.0
791,-0.01159668,0.0011328532130876895,-0.22819520682260488,0.0
792,-0.009155273,-0.0001369259391015877,-0.2022278993412949,0.0
793,-0.006866455,-0.0008543969860314617,-0.17732294680038704,0.0
794,-0.006561279,-0.00016655209959362538,-0.15342746530914675,0.0
795,-0.001983643,0.002551584211101597,-0.1304438631949624,0.0
796,0.000457764,0.007689839505993563,-0.10824695808224101,0.0
797,0.003509521,0.015406137510674045,-0.08670024806931416,0.0
798,0.00579834,0.0256383244710002,-0.06567076470009305,0.0
799,0.005645752,0.038122931882286784,-0.045042078677611404,0.0
800,0.007781982,0.05241955025957552,-0.024725151244556792,0.0
801,-0.001068115,0.06793993189489388,-0.004666816309482322,0.0
802,0.003356934,0.08398139658565101,0.015144261848691526,0.0
803,0.003204346,0.09976444199397183,0.03467427778592089,0.0
804,0.009460449,0.11447453230408097,0.05384372463429567,0.0
805,0.013275146,0.12730781911595923,0.07252966549480525,0.0
806,0.008544922,0.13752012587619564,0.09057087665311847,0.0
807,0.005493164,0.1444780408752527,0.10777583653227114,0.0
808,0.010681152,0.14771047909430365,0.12393344256531019,0.0
809,0.010681152,0.14695853986738686,0.13882622134907072,0.0
810,0.011901855,0.14222083680500025,0.15224565234081489,0.0
811,0.012969971,0.13379073804676567,0.1640090478742177,0.0
812,0.018157959,0.12228124761203685,0.17397722315320704,0.0
813,0.031280518,0.10863270982528171,0.18207195743589333,0.0
814,0.060272217,0.09409826835914625,0.18829200785525305,0.0
815,0.05645752,0.08020230828174799,0.19272621713818722,0.0
816,0.059051514,0.06866833380144706,0.19556210025249737,0.0
817,0.058135986,0.061315206047055315,0.19708826554706835,0.0
818,0.012054443,0.059924355920467076,0.1976891907616772,0.0
819,-0.011291504,0.06608500301935671,0.19783128029841981,0.0
820,-0.01159668,0.08102869402199618,0.19803977953095325,0.0
821,-0.004119873,0.10546765058541784,0.19886696022603442,0.0
822,-0.01159668,0.13945283746659357,0.2008529172520613,0.0
823,-0.020904541,0.18226734673023903,0.20448121626052812,0.0
824,-0.021057129,0.23236912144240107,0.21013241278964317,0.0
825,-0.016174316,0.28739457179362166,0.2180390645708155,0.0
826,-0.016174316,0.3442312851820416,0.2282462357237117,0.0
827,-0.011444092,0.39916372856387655,0.24058160075591525,0.0
828,-0.006408691,0.44809065976645135,0.25463905807285353,0.0
829,-0.009002686,0.4868070801445582,0.26977922818242767,0.0
830,-0.019989014,0.5113371297246594,0.28514932490070843,0.0
831,-0.081481934,0.5182974050901756,0.29972364106483074,0.0
832,-0.057067871,0.5052626130108355,0.31236427443611,0.0
833,0.202331543,0.4710969419845633,0.3218997127036558,0.0
834,0.919189453,0.4162056480838404,0.32721648818727833,0.0
835,0.895080566,0.3426561788416097,0.32735643669052134,0.0
836,0.126342773,0.25412527961704434,0.3216096626719121,0.0
837,-0.377044678,0.15565525225831384,0.3095920885004183,0.0
838,-0.450744629,0.05324428575509055,0.29129743405700625,0.0
839,-0.306091309,-0.0466659479426659,0.2671168497842842,0.0
840,-0.160827637,-0.13772618144490323,0.23782427222788063,0.0
841,-0.104675293,-0.2141694755917727,0.2045303178508443,0.0
842,-0.077514648,-0.27121006232669137,0.16861094026496126,0.0
843,-0.057983398,-0.30533080343821406,0.1316187624040096,0.0
844,-0.044403076,-0.3144568468780531,0.09518525509352124,0.0
845,-0.03112793,-0.29802346859719786,0.06092129210253032,0.0
846,-0.023498535,-0.25695124602260005,0.030322513630746544,0.0
847,-0.018615723,-0.19354370664739778,0.004684662484385015,0.0
848,-0.004882813,-0.11132272573583152,-0.01496721291571748,0.0
849,0.005493164,-0.014816025525447411,-0.02793297433855219,0.0
850,0.015258789,0.09069026490675786,-0.03387335916247901,0.0
851,0.022735596,0.19942250183489102,-0.03282692517676445,0.0
852,0.031585693,0.3054036859138845,-0.02520796640827846,0.0
853,0.040893555,0.402741642509731,-0.011786038786898132,0.0
854,0.052947998,0.48591238617540033,0.006351700711142381,0.0
855,0.070343018,0.5500296226972142,0.0278536169137856,0.0
856,0.089569092,0.5910905861322049,0.05116994315780751,0.0
857,0.109100342,0.6061873671359238,0.07462958306377587,0.0
858,0.127410889,0.593671992163797,0.09652404919497876,0.0
859,0.142211914,0.5532632808795132,0.11519467961870766,0.0
860,0.154571533,0.4860844452377412,0.129118798072937,0.0
861,0.154876709,0.3946229005638005,0.1369901544375378,0.0
862,0.13168335,0.28260808309178187,0.13778889477365272,0.0
863,0.075073242,0.15480921599081088,0.13083656078614953,0.0
864,0.000152588,0.01676252979610187,0.11583228457529368,0.0
865,-0.070953369,-0.12555457460743918,0.09286745464811767,0.0
866,-0.132293701,-0.2660780619112747,0.062417631978506465,0.0
867,-0.167999268,-0.39901199685836836,0.025312245179870387,0.0
868,-0.182647705,-0.5191546331172521,-0.017315627376137163,0.0
869,-0.180511475,-0.6221705715504176,-0.0640955148790107,0.0
870,-0.172729492,-0.7047903244041522,-0.11349682816676804,0.0
871,-0.161895752,-0.7649268926204627,-0.16391151704383233,0.0
872,-0.147247314,-0.8017074013800652,-0.21373642891221112,0.0
873,-0.129699707,-0.8154252963553271,-0.26145014198861755,0.0
874,-0.114440918,-0.8074244144518581,-0.30567989311707533,0.0
875,-0.102844238,-0.7799301456105473,-0.34525532387618896,0.0
876,-0.088500977,-0.7358448995363084,-0.37924699428803976,0.0
877,-0.077514648,-0.678525370650519,-0.40698883961428334,0.0
878,-0.067596436,-0.6115579741063772,-0.4280848739254501,0.0
879,-0.062713623,-0.538546678421486,-0.4424014031442892,0.0
880,-0.052947998,-0.46292465485312423,-0.4500467563108019,0.0
881,-0.043640137,-0.3877980472803477,-0.45134105820474196,0.0
882,-0.039367676,-0.31582704112480997,-0.44677885208675794,0.0
883,-0.033569336,-0.24914648720805724,-0.4369874572048568,0.0
884,-0.025939941,-0.18932573286304832,-0.4226838403157421,0.0
885,-0.023803711,-0.13736509572940397,-0.4046325266435008,0.0
886,-0.021362305,-0.09372462985021941,-0.38360670813113035,0.0
887,-0.018920898,-0.05837949412844276,-0.3603542602508734,0.0
888,-0.020751953,-0.030895338795297336,-0.3355698862848478,0.0
889,-0.018768311,-0.010516680824042102,-0.30987410133499754,0.0
890,-0.018615723,0.003738752220660533,-0.28379927720891995,0.0
891,-0.018615723,0.012986287446182701,-0.2577825212651184,0.0
892,-0.014038086,0.018386935045686562,-0.23216478078134317,0.0
893,-0.013885498,0.02107101964341116,-0.20719526692675935,0.0
894,-0.013885498,0.02207616483245168,-0.18304008890448847,0.0
895,-0.005187988,0.02230163575493601,-0.15979388118665447,0.0
896,-0.006408691,0.022479744835316767,-0.13749318976775673,0.0
897,-0.004119873,0.023163855491289145,-0.11613044620308345,0.0
898,-0.003967285,0.024731550083940373,-0.09566748574095324,0.0
899,-0.001678467,0.02740079667410658,-0.07604774042860614,0.0
900,-0.001373291,0.031256428307126174,-0.057206442663143973,0.0
901,0.000762939,0.03628388231951163,-0.03907839571901448,0.0
902,0.001068115,0.042406895340675085,-0.021603095477115492,0.0
903,0.000762939,0.04952569261842921,-0.004727214476168051,0.0
904,0.008239746,0.057552130127756174,0.011595320328191315,0.0
905,0.010681152,0.06643822881413936,0.02740521550815948,0.0
906,0.015563965,0.07619459605880077,0.042741030150124676,0.0
907,0.028839111,0.08689542481541328,0.0576429184456835,0.0
908,0.052032471,0.09866720557817635,0.07215594802438915,0.0
909,0.047149658,0.11165914158392151,0.08633195662569758,0.0
910,0.061798096,0.125994743798492,0.10022889994180438,0.0
911,0.045776367,0.14170637638857617,0.11390675247967215,0.0
912,0.00579834,0.15865755975218138,0.12741929077165337,0.0
913,-0.016326904,0.1764611704516722,0.14080153541558704,0.0
914,-0.010986328,0.19440449256507253,0.1540532362750027,0.0
915,-0.011749268,0.21139345064200643,0.16711948256532294,0.0
916,-0.011444092,0.22592776721865235,0.17987019536690171,0.0
917,-0.011444092,0.23611643910901156,0.1920808002371832,0.0
918,-0.010986328,0.2397394720333488,0.2034167013929333,0.0
919,-0.011138916,0.23435783146700953,0.2134242488989104,0.0
920,-0.011444092,0.21746935363198797,0.2215306985635512,0.0
921,-0.011444092,0.18670405208564128,0.22705521734622694,0.0
922,-0.011138916,0.14004797590666937,0.22923229986069582,0.0
923,-0.011444092,0.07608067936079722,0.22724805710326287,0.0
924,-0.011444092,-0.005792358488305149,0.2202887496789924,0.0
925,-0.011444092,-0.10513414578058536,0.2075997086482916,0.0
926,-0.01159668,-0.22032147080114292,0.1885514740381537,0.0
927,-0.102844238,-0.34846631348783613,0.1627086517985654,0.0
928,0.511322021,-0.48543847116126326,0.12989572275930072,0.0
929,0.617523193,-0.6260118160524202,0.09025294961689326,0.0
930,-0.008239746,-0.7641475151799862,0.044274884872297096,0.0
931,-0.507507324,-0.8934070207426285,-0.007175697595054001,0.0
932,-0.663299561,-1.0074569264687494,-0.06288374267660216,0.0
933,-0.546722412,-1.100599339301444,-0.12132943629775633,0.0
934,-0.365447998,-1.1682509986889458,-0.18076446465207685,0.0
935,-0.267181396,-1.2073072180561577,-0.23930996939458063,0.0
936,-0.223083496,-1.2163541635564306,-0.2950664651800161,0.0
937,-0.186004639,-1.1957216119696104,-0.34622519365456456,0.0
938,-0.154571533,-1.147389587623277,-0.39117119415692386,0.0
939,-0.148620605,-1.074774572345354,-0.4285701786038024,0.0
940,-0.106964111,-0.9824264597641088,-0.45743355931609375,0.0
941,-0.101928711,-0.8756686497552929,-0.47715832244580414,0.0
942,-0.066375732,-0.760212377679846,-0.4875406478949126,0.0
943,-0.063018799,-0.6417735091132551,-0.4887641265344819,0.0
944,-0.034332275,-0.5257161398844215,-0.48136504837274985,0.0
945,-0.033416748,-0.416742787778266,-0.4661784948792396,0.0
946,-0.008850098,-0.31864606010798413,-0.4442698526575858,0.0
947,-0.009002686,-0.23413169859318597,-0.4168568813409774,0.0
948,-0.009002686,-0.16471803894372722,-0.3852276380851782,0.0
949,-0.009002686,-0.11071233217050466,-0.350659416919384,0.0
950,-0.009002686,-0.07126023554977813,-0.3143434450974937,0.0
951,-0.009002686,-0.0444613061696294,-0.2773194422257534,0.0
952,-0.009155273,-0.027540669534470444,-0.24042335162792827,0.0
953,-0.009155273,-0.01706518640657463,-0.2042506587122133,0.0
954,-0.009002686,-0.009191275115323694,-0.16913677212444475,0.0
955,-0.009002686,6.909638289730874e-05,-0.13515500235995928,0.0
956,-0.009002686,0.014577989698133495,-0.10213175984017583,0.0
957,-0.009002686,0.03781034678537784,-0.06967773195544283,0.0
958,-0.00869751,0.07261551572432356,-0.03723300247725462,0.0
959,-0.009307861,0.12101428543036094,-0.004123361401794338,0.0
960,-0.00869751,0.18404335105891861,0.030375565418598358,0.0
961,-0.009155273,0.26165775949978104,0.06697023921878059,0.0
962,-0.008850098,0.3526998965496416,0.106281413850085,0.0
963,-0.008850098,0.4549407951663571,0.14878103228112452,0.0
964,-0.008850098,0.5651957812356186,0.19473817788172657,0.0
965,-0.008850098,0.6795115513654498,0.24417812529809155,0.0
966,0.046844482,0.7934155626756252,0.2968578852366915,0.0
967,0.283813477,0.9022112251757021,0.3522606023839022,0.0
968,0.29876709,1.001294797316134,0.4096097304975313,0.0
969,0.280761719,1.0864644662595961,0.467902161950336,0.0
970,0.261230469,1.1541917087466926,0.525957674192197,0.0
971,0.241241455,1.2018306627848387,0.5824805188672211,0.0
972,0.220794678,1.2277508675032367,0.6361280132178965,0.0
973,0.199127197,1.2313890144554205,0.6855807076595006,0.0
974,0.179901123,1.2132239839111267,0.7296090270025999,0.0
975,0.164794922,1.1746856522182816,0.7671320535674134,1.0
976,0.147094727,1.118011816195919,0.7972651635612507,0.0
977,0.130004883,1.0460694067766534,0.8193543903429206,0.0
978,0.112915039,0.9621563513396362,0.8329965470787738,0.0
979,0.098571777,0.8697993828536676,0.838045205701399,0.0
980,0.086212158,0.7725611154865064,0.8346035357294324,0.0
981,0.077362061,0.67386709341608,0.8230057151307276,0.0
982,0.067138672,0.5768605515114635,0.8037891158919261,0.0
983,0.059051514,0.4842895943353907,0.7776597384048365,0.0
984,0.048217773,0.3984286715667123,0.7454534380189236,0.0
985,0.039367676,0.32103379470526716,0.7080953845131251,0.0
986,0.035095215,0.25332898689597494,0.6665599582450064,0.0
987,0.030517578,0.19601998461302825,0.6218329534655509,0.0
988,0.02532959,0.14933019035280537,0.5748775650077116,0.0
989,0.022735596,0.11305330162481443,0.5266052115145929,0.0
990,0.023040771,0.08661691300216671,0.47785182668563503,0.0
991,0.020294189,0.0691516792010698,0.4293598571719805,0.0
992,0.017700195,0.05956128883523303,0.3817658651922618,0.0
993,0.012969971,0.056589470025312075,0.33559336418747143,0.0
994,0.009155273,0.0588814371439403,0.2912503293874753,0.0
995,0.008392334,0.06503844479447886,0.24903072617310537,0.0
996,0.00579834,0.07366526853225938,0.20911938148441014,0.0
997,0.003204346,0.08341134759680581,0.17159957194898617,0.0
998,0.003356934,0.09300693755532934,0.13646279624315927,0.0
999,0.001678467,0.10129591350829982,0.10362031643390655,0.0
1000,0.000915527,0.10726684060399998,0.07291617252408825,0.0
1001,0.000762939,0.11008360699738094,0.044141476939473144,0.0
1002,0.000915527,0.10911633294492415,0.01704986500476695,0.0
1003,0.000762939,0.10397248107098435,-0.00862599884829024,0.0
1004,-0.001678467,0.0945271619077658,-0.033156989251711615,0.0
1005,-0.003967285,0.08095062624288153,-0.0567993791345152,0.0
1006,0.000915527,0.06372991987806828,-0.07977634887816876,0.0
1007,0.007019043,0.043680694746106495,-0.10225969759996831,0.0
1008,0.020141602,0.021944312942287596,-0.12435254478221583,0.0
1009,0.049133301,-3.514664960369007e-05,-0.14607407200918562,0.0
1010,0.041046143,-0.02055921470207602,-0.16734760850446395,0.0
1011,0.05065918,-0.03775266875373608,-0.18799355584337524,0.0
1012,0.031585693,-0.049671816448579834,-0.2077287040772123,0.0
1013,-0.010986328,-0.05444083619633022,-0.22617334037353276,0.0
1014,-0.03112793,-0.05040897951631109,-0.24286714541172644,0.0
1015,-0.025939941,-0.03631712030763301,-0.25729421681154757,0.0
1016,-0.021209717,-0.011459107152334586,-0.2689167180203112,0.0
1017,-0.030975342,0.02417783577644736,-0.27721573373438785,0.0
1018,-0.038452148,0.06980898734265484,-0.28173703166012076,0.0
1019,-0.035858154,0.12379806656575841,-0.2821386696450501,0.0
1020,-0.033111572,0.18366461429350772,-0.2782368016936694,0.0
1021,-0.030975342,0.24616092099246314,-0.27004566999688,0.0
1022,-0.02822876,0.3074223548537837,-0.2578076670529365,0.0
1023,-0.023193359,0.36318981357207153,-0.24200955274458905,0.0
1024,-0.021057129,0.40909715703575344,-0.22338144609212682,0.0
1025,-0.034484863,0.441009998070257,-0.20287609954250782,0.0
1026,-0.08972168,0.45539518957546965,-0.18162721673273238,0.0
1027,-0.059661865,0.4496926310128677,-0.16088720448294244,0.0
1028,0.198516846,0.42265237304891573,-0.1419467776077797,0.0
1029,0.898590088,0.3745911030919957,-0.12604126688145798,0.0
1030,0.89553833,0.3075170280200295,-0.11425117554968887,0.0
1031,0.11932373,0.22507941636398937,-0.10740697253964251,0.0
1032,-0.388183594,0.1323257994071811,-0.1060093403222075,0.0
1033,-0.444641113,0.03529146040153183,-0.11017513498223425,0.0
1034,-0.294647217,-0.059516040962566075,-0.11961595491790683,0.0
1035,-0.155181885,-0.1456585725019633,-0.13365138989955896,0.0
1036,-0.104370117,-0.21726628037031132,-0.1512542925831684,0.0
1037,-0.076141357,-0.2694483878451812,-0.17112200262407898,0.0
1038,-0.058898926,-0.29859492039525315,-0.19176573125198748,0.0
1039,-0.044403076,-0.30256564568951666,-0.21160998328073177,0.0
1040,-0.03616333,-0.28077258646513625,-0.2290944403447249,0.0
1041,-0.025939941,-0.23416754390064554,-0.24277172597159435,0.0
1042,-0.016479492,-0.16514820685078316,-0.2513956479698639,0.0
1043,-0.006256104,-0.07739687731490304,-0.253995711399152,0.0
1044,0.00579834,0.024334623821897813,-0.24993483192106034,0.0
1045,0.015716553,0.13448118752452518,-0.2389482143714416,0.0
1046,0.029907227,0.24695004623452702,-0.22116228355735773,0.0
1047,0.039825439,0.3554248355189192,-0.19709337114969122,0.0
1048,0.049438477,0.4536775600160703,-0.1676265936193659,0.0
1049,0.062561035,0.5358779558828204,-0.13397602745606155,0.0
1050,0.077819824,0.5968893177530438,-0.0976279274339777,0.0
1051,0.095825195,0.6325390500460693,-0.06026936678050303,0.0
1052,0.116729736,0.6398512096780536,-0.02370532065939074,0.0
1053,0.139923096,0.617227502333006,0.010232136121022826,0.0
1054,0.156860352,0.5645630934357795,0.03977821928078272,0.0
1055,0.164642334,0.48328477474186904,0.06332857165948624,0.0
1056,0.164489746,0.3763020042097907,0.07952593486065934,0.0
1057,0.136260986,0.24786641644149907,0.08733505765205957,0.0
1058,0.069122314,0.10334253273417728,0.08610084846605705,0.0
1059,-0.016021729,-0.051098969339859246,0.07558556096171044,0.0
1060,-0.100097656,-0.20884512441294156,0.055982083125825755,0.0
1061,-0.161437988,-0.36323387816865554,0.02790211336711019,0.0
1062,-0.193786621,-0.5079445566716703,-0.007660022622149746,0.0
1063,-0.206756592,-0.6373536795616521,-0.04938518687401265,0.0
1064,-0.209503174,-0.7468286615849928,-0.09570444345562057,0.0
1065,-0.198516846,-0.8329396299916308,-0.14488562126998433,0.0
1066,-0.180206299,-0.8935788397465513,-0.19512516281153283,0.0
1067,-0.163269043,-0.9279864303827583,-0.24463900404304437,0.0
1068,-0.146026611,-0.9366893615418904,-0.2917467845382145,0.0
1069,-0.128936768,-0.9213665624401373,-0.33494465906173093,0.0
1070,-0.119018555,-0.8846573340501813,-0.37296321896379714,0.0
1071,-0.105285645,-0.8299319194036792,-0.40480838276437037,0.0
1072,-0.090637207,-0.7610432306117804,-0.42978444952794564,0.0
1073,-0.075378418,-0.6820774292251668,-0.44749972673122446,0.0
1074,-0.062713623,-0.5971188162823432,-0.45785617939430673,0.0
1075,-0.053253174,-0.5100416118713902,-0.461025359183968,0.0
1076,-0.046844482,-0.4243379148473035,-0.4574134403121531,0.0
1077,-0.040893555,-0.3429876463884559,-0.4476185079718292,0.0
1078,-0.035705566,-0.2683728476957381,-0.432383324652057,0.0
1079,-0.030975342,-0.2022355787373618,-0.4125466653867166,0.0
1080,-0.026245117,-0.1456760476240307,-0.3889960031004144,0.0
1081,-0.026092529,-0.09918558718164935,-0.3626238851431739,0.0
1082,-0.026092529,-0.06270770204656435,-0.33428981834496574,0.0
1083,-0.023651123,-0.035719616869849036,-0.30478891625575916,0.0
1084,-0.023651123,-0.01732654457714628,-0.27482799871845676,0.0
1085,-0.023803711,-0.006361232791813512,-0.245009306647213,0.0
1086,-0.020904541,-0.0014821658339989542,-0.2158215345690039,0.0
1087,-0.01739502,-0.0012649877088576345,-0.18763751323611416,0.0
1088,-0.013885498,-0.004283133343504995,-0.16071760836477098,0.0
1089,-0.011444092,-0.009175155321179976,-0.1352177432334013,0.0
1090,-0.010070801,-0.014697644860332947,-0.11120089604515103,0.0
1091,-0.009002686,-0.019763833057502313,-0.08865095207369461,0.0
1092,-0.008850098,-0.02346885621495629,-0.06748788469652253,0.0
1093,-0.006561279,-0.02510328200583319,-0.04758337674715399,0.0
1094,-0.003967285,-0.024156862517184637,-0.02877615505459323,0.0
1095,-0.001678467,-0.02031464507240679,-0.010886481000028857,0.0
1096,-0.001678467,-0.013447547410687669,0.00627059459300902,0.0
1097,-0.001373291,-0.003599292372684264,0.022873454575508136,0.0
1098,0.003509521,0.009028778080526108,0.03908373587644011,0.0
1099,0.003356934,0.024093970838962517,0.055037776663778605,0.0
1100,0.003204346,0.04112907628895768,0.07083966591964545,0.0
1101,0.003356934,0.059559776002488345,0.08655585246225429,0.0
1102,0.00579834,0.07872310473722355,0.10221128344631061,0.0
1103,0.00793457,0.09788780872834614,0.11778708012643661,0.0
1104,0.003509521,0.1162776281737328,0.13321981075346467,0.0
1105,0.005645752,0.13309851875852804,0.14840247447987226,0.0
1106,0.008392334,0.1475706028100279,0.1631873533085557,0.0
1107,0.013275146,0.1589651824783165,0.1773909084028863,0.0
1108,0.015258789,0.1666464657423094,0.1908008799504304,0.0
1109,0.013122559,0.17011684139151112,0.20318568764500183,0.0
1110,0.015563965,0.16906371901287168,0.214306120421844,0.0
1111,0.013122559,0.16340519989342595,0.22392915444770725,0.0
1112,0.015563965,0.15333116448984413,0.23184355473319368,0.0
1113,0.015411377,0.13933573322507192,0.23787670439179917,0.0
1114,0.02166748,0.12223650183797052,0.24191187261405067,0.0
1115,0.03616333,0.1031755533870792,0.2439048868425401,0.0
1116,0.06362915,0.08359717278155034,0.24389893250283393,0.0
1117,0.05065918,0.06519772989109524,0.24203599407038107,0.0
1118,0.056762695,0.0498447375523296,0.23856332210497858,0.0
1119,0.043487549,0.039464879564727176,0.23383332614381266,0.0
1120,0.001373291,0.03590468597863264,0.22829551552399485,0.0
1121,-0.020294189,0.04077190205422633,0.22247957420856396,0.0
1122,-0.013885498,0.05526956184311821,0.2169693479574387,0.0
1123,-0.006408691,0.08003744748092126,0.21236837505491413,0.0
1124,-0.01739502,0.11501651814716483,0.2092584997564671,0.0
1125,-0.023498535,0.15935121687821013,0.20815396274112083,0.0
1126,-0.021057129,0.21134283146347224,0.20945408563586088,0.0
1127,-0.018463135,0.2684645890537424,0.2133982076267943,0.0
1128,-0.016174316,0.3274458515293188,0.22002685265559338,0.0
1129,-0.016326904,0.3844285646666528,0.22915316590647933,0.0
1130,-0.012512207,0.4351940613951325,0.24034842088568747,0.0
1131,-0.009307861,0.47545255089230726,0.25294483483447666,0.0
1132,-0.019989014,0.5011812323435003,0.2660580211579885,0.0
1133,-0.076293945,0.5089900062877767,0.2786301401771473,0.0
1134,-0.04699707,0.49648614633615595,0.2894931722057518,0.0
1135,0.218811035,0.46260085912449134,0.2974497122039066,0.0
1136,0.940856934,0.4078321378059086,0.3013662746844938,0.0
1137,0.847625732,0.33435384712630606,0.3002714524728158,0.0
1138,0.102081299,0.24594903717539596,0.29344892044536364,0.0
1139,-0.373535156,0.14775292388883174,0.28051417662937533,0.0
1140,-0.441131592,0.04583264234034138,0.26146501880719075,0.0
1141,-0.325469971,-0.05333177628127703,0.23669922928533565,0.0
1142,-0.152587891,-0.14338583012663098,0.20699781455100238,0.0
1143,-0.10055542,-0.21858953589702274,0.17347686202471488,0.0
1144,-0.071258545,-0.27421276052548627,0.13751442440729397,0.0
1145,-0.057830811,-0.30681753915038307,0.10066046029858851,0.0
1146,-0.045776367,-0.31442578085192285,0.06453805762541678,0.0
1147,-0.033416748,-0.2965808846558075,0.030743479172967776,0.0
1148,-0.024108887,-0.25431665013556726,0.0007514459960001009,0.0
1149,-0.013580322,-0.19004870860121392,-0.024169203233182526,0.0
1150,-0.003051758,-0.10740382964837974,-0.043025613529125026,0.0
1151,0.003356934,-0.011001585642912481,-0.05515409755214034,0.0
1152,0.013122559,0.09379853507231486,-0.06025477610823568,0.0
1153,0.02243042,0.20117299322446244,-0.05840695287969645,0.0
1154,0.032653809,0.305122783509034,-0.05006526557813459,0.0
1155,0.039978027,0.39976535150303916,-0.03603730692606416,0.0
1156,0.049438477,0.4796207526908031,-0.017443982810512702,0.0
1157,0.068817139,0.5398826655482178,0.004335589716471279,0.0
1158,0.088653564,0.5766640566359144,0.027732310495523712,0.0
1159,0.115203857,0.5872062039816347,0.051065565882086224,0.0
1160,0.134887695,0.5700388687119822,0.07262848568032476,0.0
1161,0.144805908,0.5250792817116205,0.09077597634157528,0.0
1162,0.151824951,0.4536588903310257,0.1040110432236531,0.0
1163,0.149688721,0.3584698935948897,0.11106461334381765,0.0
1164,0.116729736,0.24342858328239825,0.11096404676088552,0.0
1165,0.050811768,0.11345918553965362,0.10308587211350877,0.0
1166,-0.026855469,-0.025790346558109523,0.08718906063790234,0.0
1167,-0.077362061,-0.16828144491602204,0.06342636564754948,0.0
1168,-0.132141113,-0.3079417178068304,0.032332820014120245,0.0
1169,-0.167694092,-0.43901713119601904,-0.005207764414811428,0.0
1170,-0.180206299,-0.5563918832987222,-0.04801573396790622,0.0
1171,-0.182800293,-0.6558522662149301,-0.09468393948845422,0.0
1172,-0.175323486,-0.7342773121391485,-0.14365641922027414,0.0
1173,-0.165710449,-0.7897468543465429,-0.1933118154162884,0.0
1174,-0.148925781,-0.821565583865744,-0.2420459209530974,0.0
1175,-0.133514404,-0.8302087646735584,-0.2883482255106039,0.0
1176,-0.116729736,-0.8172008564755124,-0.3308681760229997,0.0
1177,-0.09979248,-0.7849420924140051,-0.3684679579903533,0.0
1178,-0.089569092,-0.7365000255898497,-0.40025981440122554,0.0
1179,-0.079956055,-0.6753833338965896,-0.4256271294431891,0.0
1180,-0.069732666,-0.6053140443894787,-0.44422961708332176,0.0
1181,-0.057830811,-0.5300121960860911,-0.4559938990607838,0.0
1182,-0.051116943,-0.4530042157924429,-0.46109149116337145,0.0
1183,-0.043182373,-0.37746327490530607,-0.4599067252213906,0.0
1184,-0.038452148,-0.30608686156493015,-0.4529974205292454,0.0
1185,-0.033569336,-0.24101391675346653,-0.44105119880394617,0.0
1186,-0.030822754,-0.18378129984369523,-0.424840237350937,0.0
1187,-0.023345947,-0.13531719648927693,-0.4051770094141945,0.0
1188,-0.021362305,-0.09596743232216627,-0.38287320680481124,0.0
1189,-0.019073486,-0.0655495102490373,-0.35870361611918894,0.0
1190,-0.014038086,-0.0434284861918678,-0.33337626048874397,0.0
1191,-0.016326904,-0.028608453610757898,-0.30750965174555384,0.0
1192,-0.018615723,-0.01983334837891365,-0.2816175445793364,0.0
1193,-0.019836426,-0.01569096768911913,-0.2561011612095146,0.0
1194,-0.018310547,-0.014714513851731361,-0.23124847617416966,0.0
1195,-0.016174316,-0.015476643335196043,-0.20723982929402848,0.0
1196,-0.016479492,-0.016671904121204773,-0.18415888292470423,0.0
1197,-0.013580322,-0.017184488828356603,-0.16200776516880522,0.0
1198,-0.013885498,-0.016139293928016857,-0.14072514443871925,0.0
1199,-0.009002686,-0.012935265909838251,-0.12020595651368245,0.0
1200,-0.008850098,-0.007260890178572216,-0.10032154297474426,0.0
1201,-0.004119873,0.0009075831958236544,-0.08093904805873758,0.0
1202,-0.004119873,0.011323997455332531,-0.06193904739738136,0.0
1203,-0.001525879,0.02350462521986271,-0.04323053459535604,0.0
1204,-0.001831055,0.0367730923667061,-0.024762558964875992,0.0
1205,-0.001525879,0.050315810920099006,-0.00653198134480431,0.0
1206,-0.001678467,0.06324568307708589,0.011413009915226693,0.0
1207,0.003204346,0.07467163702067435,0.028973804233231537,0.0
1208,0.005645752,0.08377126122838015,0.04600669541072177,0.0
1209,0.003356934,0.08986342033103413,0.0623324387136994,0.0
1210,0.005187988,0.0924773173739617,0.07774964435158595,0.0
1211,0.00793457,0.09141407156429622,0.09205139880480072,0.0
1212,0.008239746,0.08679652608099048,0.10504428292675368,0.0
1213,0.017852783,0.07910270044756668,0.11656872922277091,0.0
1214,0.027923584,0.06917812625962166,0.1265194365286833,0.0
1215,0.047149658,0.05822241155855516,0.13486435136413585,0.0
1216,0.042266846,0.04774601631112302,0.14166055595909666,0.0
1217,0.05569458,0.039494678353471147,0.14706531256006375,0.0
1218,0.045928955,0.035341395739753506,0.15134055330749305,0.0
1219,0.004272461,0.03714928907013676,0.15484932643866278,0.0
1220,-0.01373291,0.046612652112423075,0.1580431473540451,0.0
1221,-0.009155273,0.06508732819092017,0.16143985529001326,0.0
1222,0.001068115,0.09342434218890738,0.165592391697762,0.0
1223,-0.010070801,0.13182191411859848,0.1710498024289679,0.0
1224,-0.014038086,0.17971068677675237,0.17831262160377953,0.0
1225,-0.016021729,0.23568569531576908,0.18778554377511258,0.0
1226,-0.009002686,0.29749655979782463,0.19973088365626188,0.0
1227,-0.006408691,0.36210451585714515,0.214226719487072,0.0
1228,-0.006408691,0.42581109799747363,0.231133774435248,0.0
1229,-0.000610352,0.48445860862298534,0.25007496902651044,0.0
1230,0.000762939,0.5336970816656835,0.27043114439424315,0.0
1231,-0.001525879,0.5693063817026952,0.2913556891338918,0.0
1232,-0.06149292,0.587555410094543,0.3118096863452602,0.0
1233,-0.054473877,0.5855730398042066,0.3306177174727619,0.0
1234,0.111846924,0.5616971047823427,0.3465425926710316,0.0
1235,0.674285889,0.515758758698265,0.35837500195228555,0.0
1236,0.978240967,0.44925262970401547,0.36503147163376864,0.0
1237,0.388031006,0.3653456097262311,0.36565144250208254,0.0
1238,-0.164794922,0.2686969761321255,0.35968257944281157,0.0
1239,-0.424346924,0.16509971384677494,0.34694358850036233,0.0
1240,-0.367889404,0.0609935291282788,0.32765637447450174,0.0
1241,-0.203857422,-0.03707515107616394,0.3024437903657588,0.0
1242,-0.113220215,-0.12297132637295646,0.27229413244015194,0.0
1243,-0.081176758,-0.19141245316031114,0.2384975247873652,0.0
1244,-0.05645752,-0.23830245708537995,0.20256169934619417,0.0
1245,-0.040893555,-0.2609498054835945,0.16611546201803867,0.0
1246,-0.028839111,-0.25817416363262996,0.13080779964548075,0.0
1247,-0.019836426,-0.23031337948449593,0.09820961472277642,0.0
1248,-0.008850098,-0.17914577270538845,0.06972382725901927,0.0
1249,-0.001831055,-0.1077435501558264,0.04650827107220981,0.0
1250,0.00579834,-0.020272602002376128,0.02941455841699908,0.0
1251,0.015411377,0.07824740027176805,0.018944958655983234,0.0
1252,0.023193359,0.182210290977386,0.015228360982772825,0.0
1253,0.032501221,0.2857072756434744,0.018015566782015813,0.0
1254,0.039520264,0.38281770300840295,0.026693462796799877,0.0
1255,0.048065186,0.4678976705747929,0.040317028290393464,0.0
1256,0.063934326,0.5358573762387455,0.0576575886523214,0.0
1257,0.084991455,0.5824175226501789,0.07726520576968135,0.0
1258,0.105743408,0.604334062260494,0.09754256173130313,0.0
1259,0.126495361,0.5995795278121534,0.11682713597010068,0.0
1260,0.14251709,0.5674686834359324,0.133477915271137,0.0
1261,0.151672363,0.5087168399808822,0.1459623633700942,0.0
1262,0.155792236,0.4254213622211697,0.15293899275831574,0.0
1263,0.141448975,0.3209609007281026,0.1533307225556235,0.0
1264,0.09475708,0.1998127019325358,0.14638437044022876,0.0
1265,0.023193359,0.06729565000129481,0.13171219388250413,0.0
1266,-0.051574707,-0.07074534389170081,0.1093124053622222,0.0
1267,-0.110168457,-0.208290723461943,0.07956700697076063,0.0
1268,-0.153808594,-0.33950559835587957,0.04321700122099368,0.0
1269,-0.174865723,-0.45907773383611605,0.0013168359133477105,0.0
1270,-0.180206299,-0.5625074709683321,-0.04482840648061549,0.0
1271,-0.172729492,-0.6463286402608356,-0.09373827592759729,0.0
1272,-0.158233643,-0.7082474191606747,-0.14383910059196453,0.0
1273,-0.143585205,-0.7471946282150218,-0.19354721868163668,0.0
1274,-0.13092041,-0.7632949119963477,-0.24134782141396524,0.0
1275,-0.11138916,-0.7577627441337415,-0.2858646862035147,0.0
1276,-0.097045898,-0.7327398135488937,-0.325917139382507,0.0
1277,-0.082550049,-0.6910910360863807,-0.3605618164461026,1.0
1278,-0.067596436,-0.6361773443117162,-0.3891180581611063,0.0
1279,-0.057983398,-0.5716227863909,-0.41117698588251467,0.0
1280,-0.048065186,-0.5010916161673378,-0.42659535559583495,0.0
1281,-0.041809082,-0.42808831973316935,-0.43547613914144945,0.0
1282,-0.036010742,-0.355790249718983,-0.4381383895452891,0.0
1283,-0.028533936,-0.28691906507933906,-0.4350793058404085,0.0
1284,-0.030517578,-0.22365379454484163,-0.4269315322069734,0.0
1285,-0.028533936,-0.16758528088406494,-0.414418633471791,0.0
1286,-0.023956299,-0.11970918718776515,-0.3983114216789298,0.0
1287,-0.018920898,-0.08045278084001034,-0.379387411351784,0.0
1288,-0.018768311,-0.04972940990528241,-0.35839520210900383,0.0
1289,-0.018463135,-0.02701389353277012,-0.3360250716048768,0.0
1290,-0.018768311,-0.011431836660044305,-0.3128865462572293,0.0
1291,-0.018920898,-0.0018560512347254115,-0.28949322972888747,0.0
1292,-0.016479492,0.0029962172736941284,-0.26625473151222656,0.0
1293,-0.016326904,0.00447072828190493,-0.24347516852848688,0.0
1294,-0.01373291,0.003892745645787498,-0.2213574252845749,0.0
1295,-0.014038086,0.0024957869970001004,-0.20001216012749526,0.0
1296,-0.009002686,0.0013645818451591893,-0.17947043636618923,0.0
1297,-0.006256104,0.0013930342157734317,-0.15969883101502366,0.0
1298,-0.003967285,0.0032569594864136995,-0.14061591948242075,0.0
1299,0.001068115,0.0074005432113267555,-0.12210913678892805,0.0
1300,0.000915527,0.014034907972165223,-0.10405115695486199,0.0
1301,0.004730225,0.023146894816974677,-0.08631509275333438,0.0
1302,0.005950928,0.03451614842226991,-0.06878797984587477,0.0
1303,0.00579834,0.0477387868566599,-0.051382157505827246,0.0
1304,0.00579834,0.06225626640858208,-0.034044282521582515,0.0
1305,0.008087158,0.07738843759002893,-0.0167618086427157,0.0
1306,0.008087158,0.09237014439938485,0.0004331682479159294,0.0
1307,0.008087158,0.10639097463565449,0.017462753716426836,0.0
1308,0.009155273,0.11863788763585831,0.03420481026858622,0.0
1309,0.008392334,0.12834041553168607,0.05049722110974894,0.0
1310,0.00579834,0.13481794765038888,0.06614482678075292,0.0
1311,0.008087158,0.1375282562090176,0.08092895316845697,0.0
1312,0.008087158,0.13611590038083676,0.09461937973985113,0.0
1313,0.008087158,0.1304584697213573,0.106988495401135,0.0
1314,0.008392334,0.1207078498670225,0.11782725053615756,0.0
1315,0.010223389,0.10732289900233583,0.1269623366045505,0.0
1316,0.015869141,0.09108920350492802,0.13427381378979591,0.0
1317,0.02746582,0.07312103266609779,0.13971217273378897,0.0
1318,0.056762695,0.05484038992787408,0.14331357564834454,0.0
1319,0.050811768,0.037928435550023044,0.14521180434373904,0.0
1320,0.059204102,0.024245911677086732,0.14564529527893016,0.0
1321,0.045776367,0.015721836654599735,0.1449576295668384,0.0
1322,-0.000305176,0.014213603178279988,0.1435900372809676,0.0
1323,-0.018615723,0.021346176134366027,0.14206491611563557,0.0
1324,-0.016479492,0.0383424000537481,0.14096005159376704,0.0
1325,-0.01373291,0.06585947685294827,0.14087409657991043,0.0
1326,-0.021209717,0.10384787611172908,0.14238481333168812,0.0
1327,-0.027160645,0.1514484092113008,0.1460024853017838,0.0
1328,-0.023803711,0.20694142500461654,0.1521216776667701,0.0
1329,-0.018768311,0.26775938921117565,0.16097510499853,0.0
1330,-0.01663208,0.3305705262805115,0.1725937065227922,0.0
1331,-0.013427734,0.39143672868247775,0.18677709332987663,0.0
1332,-0.009002686,0.4460436813353175,0.20307828348028464,0.0
1333,-0.006561279,0.48999524862553673,0.22080605646608617,0.0
1334,-0.015716553,0.5191577252343242,0.2390473238776494,0.0
1335,-0.069885254,0.5300326006615244,0.25671062037864684,0.0
1336,-0.038299561,0.5201289368158608,0.2725901600995465,0.0
1337,0.212249756,0.488298114026509,0.28544786296837243,0.0
1338,0.887298584,0.43498526582346053,0.294108335470241,0.0
1339,0.899963379,0.3623471695293248,0.29755913643173515,0.0
1340,0.133514404,0.27419391311831,0.29504627968012576,0.0
1341,-0.374603271,0.17573829428695698,0.2861537621764979,0.0
1342,-0.440979004,0.07317813940990736,0.2708569138724164,0.0
1343,-0.290679932,-0.026825491401766724,0.24954274842464697,0.0
1344,-0.160980225,-0.11769533478847341,0.2229953261125353,0.0
1345,-0.098419189,-0.19344091560236032,0.19234887596690758,0.0
1346,-0.07019043,-0.2490721694758951,0.1590148411373396,0.0
1347,-0.051879883,-0.280902782141159,0.12459072914658548,0.0
1348,-0.040740967,-0.28673991290854184,0.09075895940359269,0.0
1349,-0.030670166,-0.2659671696182943,0.05918332214229131,0.0
1350,-0.020904541,-0.219532726015871,0.03140963428162931,0.0
1351,-0.010223389,-0.1498564422992063,0.008775979727771855,0.0
1352,0.000457764,-0.06067010405917594,-0.0076632865713837164,0.0
1353,0.009307861,0.04319578432426645,-0.017196725153411446,0.0
1354,0.020294189,0.15606632689859834,-0.01949616224299452,0.0
1355,0.029602051,0.2717065328497158,-0.014637069598457522,0.0
1356,0.037689209,0.38362537220918863,-0.003098617273215941,0.0
1357,0.049438477,0.4853898585782931,0.014256269720199406,0.0
1358,0.066223145,0.5709392983125529,0.03621988565856603,0.0
1359,0.083770752,0.6348890828841851,0.06129616414700406,0.0
1360,0.102081299,0.6728121455151657,0.08777231972142699,0.0
1361,0.126495361,0.681484785363693,0.1138028115566746,0.0
1362,0.146942139,0.6590824565161577,0.13750202716471235,0.0
1363,0.161895752,0.605310866858233,0.15704139308600465,0.0
1364,0.172729492,0.5214588755180735,0.17074601028233127,0.0
1365,0.167999268,0.41036267025794726,0.17718547987534622,0.0
1366,0.141296387,0.2762757977400522,0.17525344077096452,0.0
1367,0.082855225,0.1246467411037871,0.16423059323159464,0.0
1368,-0.003662109,-0.03818562819922433,0.14382671460053975,0.0
1369,-0.088195801,-0.20535935024129193,0.11419841248782488,0.0
1370,-0.152587891,-0.36989222107087905,0.07594104798335799,0.0
1371,-0.194549561,-0.5250881138253657,0.03005523716949969,0.0
1372,-0.215606689,-0.6649140348948113,-0.02210963802447144,0.0
1373,-0.216827393,-0.7843188404902744,-0.07893067725732357,0.0
1374,-0.20980835,-0.8794716400594581,-0.1385998838134926,0.0
1375,-0.197601318,-0.9479069346917922,-0.19921941585581593,0.0
1376,-0.180358887,-0.9885729055549822,-0.25889718471577594,0.0
1377,-0.163269043,-1.0017877210493236,-0.3158367511685934,0.0
1378,-0.14831543,-0.9891154829626582,-0.3684163580227867,0.0
1379,-0.131378174,-0.953178137655703,-0.4152531345707939,0.0
1380,-0.11428833,-0.8974223332556522,-0.45524986836154757,0.0
1381,-0.095825195,-0.8258610214526002,-0.4876231300824984,0.0
1382,-0.08026123,-0.7428088929095642,-0.511912849719679,0.0
1383,-0.07019043,-0.6526288108740956,-0.5279745940355708,0.0
1384,-0.060424805,-0.5595035630387633,-0.5359567281904785,0.0
1385,-0.048065186,-0.4672438018693062,-0.5362653222291938,0.0
1386,-0.040740967,-0.37913933364400415,-0.5295200733784191,0.0
1387,-0.035705566,-0.29785726205818674,-0.5165046665525631,0.0
1388,-0.030670166,-0.22538711929473154,-0.49811491374885086,0.0
1389,-0.03112793,-0.16303017624003022,-0.4753077342998758,0.0
1390,-0.025939941,-0.11142773849503063,-0.44905360514814496,0.0
1391,-0.023193359,-0.07062150997198942,-0.42029457110632357,0.0
1392,-0.022125244,-0.040138085652526544,-0.38990930908453436,0.0
1393,-0.021209717,-0.019089277365499802,-0.35868613432844887,0.0
1394,-0.023651123,-0.006280176834886001,-0.3273042603556118,0.0
1395,-0.021362305,-0.0003175117845381436,-0.29632310810521906,0.0
1396,-0.018310547,0.0002881233623421627,-0.2661790267904997,0.0
1397,-0.016326904,-0.0029687443761358574,-0.2371884557598052,0.0
1398,-0.016174316,-0.008664672166315949,-0.20955633283869002,0.0
1399,-0.013580322,-0.015506643808214399,-0.1833884403787941,0.0
1400,-0.011444092,-0.022373909062557384,-0.15870636651716602,0.0
1401,-0.011291504,-0.02834290333344324,-0.13546383051075947,0.0
1402,-0.009307861,-0.03269682342394647,-0.11356325912372603,0.0
1403,-0.006713867,-0.03492217664606925,-0.09287168676396729,0.0
1404,-0.004119873,-0.034695107227715336,-0.07323526655169461,0.0
1405,-0.001525879,-0.031860540398590695,-0.054491904997169806,0.0
1406,-0.004119873,-0.0264071716755385,-0.03648175292935189,0.0
1407,-0.002593994,-0.01844107699093408,-0.01905548457895534,0.0
1408,0.001068115,-0.008160279654430355,-0.0020804629641302734,0.0
1409,0.003509521,0.004167929251737354,0.014554984270855166,0.0
1410,0.003356934,0.01822568948597658,0.030938870505697345,0.0
1411,0.003509521,0.03365864419377968,0.047134086399878844,0.0
1412,0.005645752,0.05008533661370279,0.0631778125490079,0.0
1413,0.008239746,0.0671024510604556,0.07908148773556066,0.0
1414,0.008239746,0.0842869008502136,0.09483107631925508,0.0
1415,0.010681152,0.1011961261948471,0.11038746516086048,0.0
1416,0.010681152,0.11736820352838925,0.12568692076104224,0.0
1417,0.010528564,0.13232348654467616,0.14064164255638384,0.0
1418,0.010528564,0.14556948306000253,0.15514055018540374,0.0
1419,0.012817383,0.15661049428834511,0.16905053190313538,0.0
1420,0.013122559,0.16496318340754015,0.18221844822176578,0.0
1421,0.015716553,0.1701787040149725,0.1944742195331714,0.0
1422,0.015411377,0.17187134961632183,0.205635321353267,0.0
1423,0.013122559,0.16975294767529614,0.2155129622230925,0.0
1424,0.012969971,0.16367146895767223,0.22392012745790832,0.0
1425,0.012969971,0.15365157351233347,0.23068153939301123,0.0
1426,0.010681152,0.13993406351973633,0.23564541444538334,0.0
1427,0.010681152,0.12301046704371815,0.23869669208267938,0.0
1428,0.014190674,0.10364827460622875,0.23977117487406807,0.0
1429,0.025024414,0.08290176224899073,0.23886975955070638,0.0
1430,0.053253174,0.06210298745908237,0.23607166940426996,0.0
1431,0.054168701,0.04282769494890891,0.23154534231726548,0.0
1432,0.049285889,0.026831916911158424,0.22555542865863618,0.0
1433,0.054473877,0.015957353334548258,0.21846427187437847,0.0
1434,0.010986328,0.012007186042970925,0.21072635165344222,0.0
1435,-0.01373291,0.016598352157109714,0.20287451636576748,0.0
1436,-0.018920898,0.031000650236556952,0.1954974261953469,0.0
1437,-0.008850098,0.05597642763374142,0.1892084238421852,0.0
1438,-0.013580322,0.091636318957399,0.18460695131082108,0.0
1439,-0.021057129,0.1373265121971248,0.18223452744241503,0.0
1440,-0.023956299,0.1915617495047772,0.18252809811533027,0.0
1441,-0.018768311,0.2520161214476108,0.18577420751663282,0.0
1442,-0.016326904,0.31558073795911157,0.19206787056421332,0.0
1443,-0.013885498,0.37849345143246327,0.201280211064189,0.0
1444,-0.010070801,0.43654097615351833,0.21303882551363115,0.0
1445,-0.006408691,0.4853281270892718,0.22672440432172966,0.0
1446,-0.006408691,0.520602630755201,0.24148636771748386,0.0
1447,-0.057830811,0.5386171329590191,0.2562791393012286,0.0
1448,-0.071258545,0.5365026129220941,0.2699191763760941,0.0
1449,0.084838867,0.5126191766884548,0.2811609867779502,0.0
1450,0.644683838,0.4668412858035457,0.2887880700772812,0.0
1451,1.084289551,0.4007274874989216,0.2917120958461823,0.0
1452,0.378112793,0.31752682247299113,0.2890710369897377,0.0
1453,-0.263061523,0.22199403345238858,0.2803152382565585,0.0
1454,-0.454101563,0.12002387071791894,0.26527057054457137,0.0
1455,-0.346374512,0.018156608336497716,0.24417045008911323,0.0
1456,-0.183410645,-0.07696837558818145,0.21765302143269,0.0
1457,-0.110931396,-0.15913598421391784,0.18672475450225684,0.0
1458,-0.079956055,-0.22300172866261364,0.1526956566531438,0.0
1459,-0.060882568,-0.26443237113173645,0.11709358331785678,0.0
1460,-0.046691895,-0.280732268765625,0.08156586954548577,0.0
1461,-0.036010742,-0.2707592097436845,0.04777618705954376,0.0
1462,-0.025939941,-0.2349401638213506,0.017303630407507556,0.0
1463,-0.014038086,-0.17520048323558934,-0.00845012737912185,0.0
1464,-0.001220703,-0.09482115411821362,-0.028341005533038553,0.0
1465,0.01449585,0.001761456090204755,-0.04154661055639613,0.0
1466,0.022888184,0.10919977807820477,-0.0476119606170995,0.0
1467,0.027313232,0.22151081199628916,-0.04647552656308826,0.0
1468,0.032653809,0.33237248663877433,-0.03847512439793313,0.0
1469,0.043487549,0.4354307047741218,-0.024333917222957566,0.0
1470,0.054168701,0.5246077132887815,-0.005127412953258876,0.0
1471,0.071258545,0.5944021992415061,0.017767077640356187,0.0
1472,0.090942383,0.6401705278891209,0.04273648195701892,0.0
1473,0.112915039,0.6583770980648381,0.0680108560512167,0.0
1474,0.140075684,0.6468003782551365,0.09175182376798971,0.0
1475,0.154571533,0.6046804021123544,0.11214659474568142,0.0
1476,0.163269043,0.5327939731629283,0.12750296513956225,0.0
1477,0.168914795,0.4334460871520847,0.13634021309001274,0.0
1478,0.153503418,0.310370426454172,0.1374705549432704,0.0
1479,0.102081299,0.16853820668143726,0.1300659407219752,0.0
1480,0.023498535,0.013882791619139093,0.11370553164431155,0.0
1481,-0.063323975,-0.14704353546938398,0.08840026703196731,0.0
1482,-0.134735107,-0.30745592847571973,0.054592465028286144,0.0
1483,-0.177764893,-0.46073587666918403,0.01313028346919356,0.0
1484,-0.20904541,-0.6008101103828899,-0.03478112679242283,0.0
1485,-0.214233398,-0.7224794353795134,-0.0876480808133773,0.0
1486,-0.207366943,-0.8216736372261974,-0.14377126091291678,0.0
1487,-0.197143555,-0.8956172065365753,-0.20133697263386224,0.0
1488,-0.178070068,-0.9429000588927686,-0.2585103723467106,0.0
1489,-0.157928467,-0.9634562832377692,-0.3135245817519412,0.0
1490,-0.139923096,-0.9584612768195335,-0.36476039516673986,0.0
1491,-0.123901367,-0.9301628817900897,-0.41081242646997956,0.0
1492,-0.109405518,-0.8816651743283651,-0.4505388786320641,0.0
1493,-0.097503662,-0.8166845138061821,-0.48309350312475935,0.0
1494,-0.082092285,-0.7392966895870932,-0.5079396263170224,0.0
1495,-0.072479248,-0.6536919568940178,-0.5248472645074066,0.0
1496,-0.057983398,-0.5639518677575961,-0.5338752708504612,0.0
1497,-0.055541992,-0.4738584417025872,-0.5353411269705466,0.0
1498,-0.048065186,-0.386742678083227,-0.5297814029322588,0.0
1499,-0.038452148,-0.30537595288742647,-0.5179060730568154,0.0
1500,-0.033416748,-0.23190471460203269,-0.5005498190528004,0.0
1501,-0.028686523,-0.1678262772143937,-0.47862321529717533,0.0
1502,-0.026092529,-0.11400147306992678,-0.4530663188422401,0.0
1503,-0.018768311,-0.07069846511018157,-0.42480672331008557,0.0
1504,-0.016174316,-0.037661099437254514,-0.39472362217991025,0.0
1505,-0.016174316,-0.014194759910642799,-0.36361889941968,0.0
1506,-0.018615723,0.0007373153510045281,-0.3321957542555109,0.0
1507,-0.016326904,0.008413961970228982,-0.3010448955199689,0.0
1508,-0.01663208,0.010258332688686053,-0.2706379278214689,0.0
1509,-0.016174316,0.007747599701651392,-0.2413272124591682,0.0
1510,-0.018768311,0.0023340896215088072,-0.21335123332494543,0.0
1511,-0.01373291,-0.004619493234662013,-0.18684433933589661,0.0
1512,-0.010223389,-0.011889468475165591,-0.16184967101988493,0.0
1513,-0.004119873,-0.018425246037035145,-0.1383341044042199,0.0
1514,-0.006561279,-0.02336925828970285,-0.1162041484760624,0.0
1515,-0.004119873,-0.026064813226721346,-0.09532189378249835,0.0
1516,-0.001525879,-0.026054391095498106,-0.07552030406128618,0.0
1517,0.000762939,-0.023071012114617158,-0.0566173447438006,0.0
1518,0.001373291,-0.017025128086956096,-0.0384286311501342,0.0
1519,-0.001678467,-0.007989099688217491,-0.02077844032813121,0.0
1520,0.000915527,0.003819236879392361,-0.0035090533305190256,0.0
1521,0.000762939,0.01805305404402823,0.013511526445753987,0.0
1522,0.003662109,0.034252828297546035,0.030383397855844395,0.0
1523,0.003051758,0.05186272297309985,0.04717005015645731,0.0
1524,0.003356934,0.070247719314277,0.06389506451119091,0.0
1525,0.000915527,0.08871240541083103,0.08054022550769759,0.0
1526,0.010681152,0.10652241764377376,0.09704509351748121,0.0
1527,0.00793457,0.12292941137616137,0.1133081384562859,0.0
1528,0.013122559,0.13720011882158012,0.12918956860519845,0.0
1529,0.012969971,0.14864959840065245,0.14451599531901252,0.0
1530,0.015563965,0.15667827237517054,0.15908705148902036,0.0
1531,0.013122559,0.1608118293564589,0.17268402841556774,0.0
1532,0.015563965,0.16074253937126531,0.18508051362590003,0.0
1533,0.013427734,0.15636998458975654,0.19605490239937634,0.0
1534,0.010681152,0.14783864367817753,0.20540451923148337,0.0
1535,0.010528564,0.13556918409092938,0.212960923012339,0.0
1536,0.015563965,0.12027972394214939,0.21860578252185653,0.0
1537,0.02746582,0.10299275668471433,0.22228649946025078,0.0
1538,0.046081543,0.08502300648492583,0.22403053169213538,0.0
1539,0.057830811,0.06794147170572418,0.2239571482529811,0.0
1540,0.04699707,0.05351171516856163,0.2222851677480337,0.0
1541,0.061645508,0.043596415358278906,0.21933515097180728,0.0
1542,0.024414063,0.04003535484230788,0.21552460301515702,0.0
1543,-0.006103516,0.04450004690060248,0.21135504254178544,0.0
1544,-0.01373291,0.058334401786238055,0.20739033379194244,0.0
1545,-0.000305176,0.08239432473049271,0.2042264180441809,0.0
1546,-0.006408691,0.11690116359815261,0.20245344496176998,0.0
1547,-0.017700195,0.16132428238371616,0.20261218508236095,0.0
1548,-0.018920898,0.21430707887394632,0.20514740819642757,0.0
1549,-0.016326904,0.27364887373013735,0.21036157237325429,0.0
1550,-0.01373291,0.33635231713898844,0.2183726362290996,0.0
1551,-0.006866455,0.3987421671557546,0.22908003513865416,0.0
1552,-0.001678467,0.4566565113910681,0.2421428034425091,0.0
1553,0.000915527,0.5057059197636484,0.2569734423454825,0.0
1554,-0.003814697,0.5415898472517058,0.2727504057177263,0.0
1555,-0.05355835,0.5604529801531035,0.2884509947891424,0.0
1556,-0.06652832,0.5592570581105779,0.30290501218864324,0.0
1557,0.066070557,0.5361356680651579,0.31486770897340444,0.0
1558,0.567932129,0.4906906028584075,0.3231083402818321,0.0
1559,1.009063721,0.4241809128324729,0.32650807426326967,0.0
1560,0.463867188,0.33955636105805737,0.32415839289571313,0.0
1561,-0.105133057,0.2413041202313015,0.31544924109901956,0.0
1562,-0.41305542,0.1351128106879035,0.3001360401095576,0.0
1563,-0.389862061,0.027399252527059513,0.2783769123699605,0.0
1564,-0.235748291,-0.07522884557471288,0.25073569144269003,0.0
1565,-0.132598877,-0.16649800485862404,0.21815121284838074,0.0
1566,-0.090942383,-0.24092326011000403,0.18187755849366807,0.0
1567,-0.068817139,-0.29415821545848136,0.1434025301974122,0.0
1568,-0.053710938,-0.323229435004432,0.10435261289832866,0.0
1569,-0.040740967,-0.3266582973375106,0.06639247667755743,0.0
1570,-0.031280518,-0.3044814714493646,0.03112615662038504,0.0
1571,-0.021209717,-0.25818490015408624,5.8161738343970315e-06,0.0
1572,-0.012359619,-0.19056733951055133,-0.025747324529305816,0.0
1573,-0.001831055,-0.10554913340866112,-0.045206594719149784,0.0
1574,0.005645752,-0.007940654306646977,-0.05778587570206059,0.0
1575,0.015563965,0.09681681070177199,-0.06326687239436019,0.0
1576,0.022583008,0.20292663504002792,-0.061807375704600105,0.0
1577,0.030059814,0.3045192229723381,-0.053930941820858946,0.0
1578,0.042114258,0.3959324562682532,-0.04049900201121158,0.0
1579,0.056915283,0.4719818303965517,-0.022666926406540756,0.0
1580,0.071411133,0.5282116024181771,-0.0018260384032893623,0.0
1581,0.090484619,0.5611175188225788,0.020465953235535576,0.0
1582,0.110473633,0.5683307983960724,0.04256315262780769,0.0
1583,0.127716064,0.5487524459367285,0.06281486108925854,0.0
1584,0.13885498,0.5026271469248157,0.07965023785613941,0.0
1585,0.144958496,0.43154739983957086,0.09165994991576507,0.0
1586,0.140991211,0.33838152684059797,0.09767031511003058,0.0
1587,0.10925293,0.22712390449993325,0.09680549390689777,0.0
1588,0.049133301,0.10267202723427657,0.08853368040396038,0.0
1589,-0.02456665,-0.029457698104691385,0.07269403890008491,0.0
1590,-0.085754395,-0.16345630798228447,0.049502330966701924,0.0
1591,-0.134735107,-0.2935660000972985,0.01953470214000562,0.0
1592,-0.162963867,-0.41441370290394086,-0.016309214115659033,0.0
1593,-0.174102783,-0.5213079284523412,-0.056861080974456316,0.0
1594,-0.170288086,-0.6104767245879231,-0.10075237064236266,0.0
1595,-0.159301758,-0.679231393269259,-0.14649151490320425,0.0
1596,-0.146179199,-0.7260486354261391,-0.1925441986838175,0.0
1597,-0.133666992,-0.7505716347444358,-0.23741141932511226,0.0
1598,-0.119171143,-0.7535373298467911,-0.2797005048342683,0.0
1599,-0.099639893,-0.7366422047082312,-0.31818519407413043,0.0
1600,-0.084686279,-0.702362190569225,-0.3518520015060002,1.0
1601,-0.073699951,-0.6537437846040425,-0.3799312940074995,0.0
1602,-0.061645508,-0.5941834174916854,-0.40191268712418604,0.0
1603,-0.05279541,-0.5272106906930683,-0.41754543195207316,0.0
1604,-0.045776367,-0.4562886926233232,-0.42682534445132925,0.0
1605,-0.040893555,-0.3846415742190358,-0.4299704857185018,0.0
1606,-0.036010742,-0.31511627884321447,-0.42738821972473845,0.0
1607,-0.033111572,-0.2500820871192113,-0.4196364613430517,0.0
1608,-0.028381348,-0.191368703500697,-0.40738190643893507,0.0
1609,-0.021057129,-0.1402411523614186,-0.39135784370555093,0.0
1610,-0.023803711,-0.09740784831686784,-0.3723238271663002,0.0
1611,-0.021514893,-0.0630568538804353,-0.35102908134675487,0.0
1612,-0.018768311,-0.036914495326804825,-0.32818105677597487,0.0
1613,-0.016021729,-0.01832014590202007,-0.30442008606851395,0.0
1614,-0.01373291,-0.006311075126090594,-0.2803006408929757,0.0
1615,-0.01373291,0.00028827768898920074,-0.2562792828965913,0.0
1616,-0.013885498,0.0027775476052493532,-0.23270905429175998,0.0
1617,-0.011444092,0.002496320577731844,-0.20983977487659666,0.0
1618,-0.008850098,0.0007478658776520998,-0.18782350421193317,0.0
1619,-0.006408691,-0.0012669639225344875,-0.16672428936926967,0.0
1620,-0.003967285,-0.002504220831397571,-0.14653124551287522,0.0
1621,-0.004119873,-0.0021190276733095963,-0.1271739994360958,0.0
1622,-0.006103516,0.000504749677272473,-0.10853955162076025,0.0
1623,-0.003662109,0.0057371607141060675,-0.09048966559302421,0.0
1624,-0.001373291,0.013696800947373203,-0.07287796204199032,0.0
1625,0.000610352,0.02425692153517317,-0.055565972087476455,0.0
1626,0.000762939,0.037062407643038184,-0.03843748612963278,0.0
1627,0.000762939,0.05155691940755816,-0.021410620150880008,0.0
1628,0.000915527,0.06701941342719833,-0.004447108466994504,0.0
1629,0.003356934,0.08260916144405271,0.01244157944968238,0.0
1630,0.008239746,0.09741818901812552,0.029191607079269075,0.0
1631,0.008239746,0.11052973704978072,0.04568782867498275,0.0
1632,0.009460449,0.12108093196321601,0.06176862065797758,0.0
1633,0.010528564,0.12832739712510913,0.07723443014339132,0.0
1634,0.010681152,0.13170708520468286,0.0918598249530123,0.0
1635,0.010681152,0.13090015513107764,0.10540865289522255,0.0
1636,0.012969971,0.12588124758748465,0.11765172519720957,0.0
1637,0.014343262,0.11696004397871848,0.12838623091156384,0.0
1638,0.020446777,0.10480557479728571,0.1374558689557861,0.0
1639,0.03616333,0.09044946863087072,0.14477045946907752,0.0
1640,0.061187744,0.07526337228730864,0.15032358128724574,0.0
1641,0.049591064,0.060906411597650964,0.15420660538696734,0.0
1642,0.063018799,0.04924016614964073,0.15661740099850213,0.0
1643,0.039825439,0.04221143764410944,0.15786204292889078,0.0
1644,-0.001525879,0.04170696369044734,0.1583481056074923,0.0
1645,-0.016326904,0.049388576393714,0.15856862518004639,0.0
1646,-0.008087158,0.06652120981595297,0.1590765306517348,0.0
1647,-0.006408691,0.09380871004838261,0.16045021812716107,0.0
1648,-0.016326904,0.13125317389638302,0.16325186132088498,0.0
1649,-0.018310547,0.17805278827639937,0.1679809106142798,0.0
1650,-0.016021729,0.23255136617837488,0.17502595555438613,0.0
1651,-0.011291504,0.29225021831007764,0.18461866314032122,0.0
1652,-0.009307861,0.3538896268225572,0.19679381762100806,0.0
1653,-0.006561279,0.4136029730923834,0.21135953908157598,0.0
1654,-0.001525879,0.4671416081442199,0.22788151516581234,0.0
1655,0.000762939,0.5101629602119409,0.24568451947446598,0.0
1656,-0.007629395,0.5385682338751999,0.2638735966230701,0.0
1657,-0.065155029,0.5488694140361023,0.2813760585770148,0.0
1658,-0.048065186,0.538558049236622,0.29700385060541407,0.0
1659,0.167999268,0.506440189802851,0.3095338895278818,0.0
1660,0.808258057,0.45289335211440995,0.31780164143809664,0.0
1661,0.941162109,0.3799959643725295,0.32080060237578595,0.0
1662,0.225524902,0.29148529708772697,0.3177779254521942,0.0
1663,-0.3074646,0.19252396108502653,0.30831509615468417,0.0
1664,-0.444488525,0.08929491114855319,0.2923832774197814,0.0
1665,-0.324401855,-0.011516081907154377,0.27036605523080154,0.0
1666,-0.168304443,-0.10327231185049687,0.2430470305906884,0.0
1667,-0.10345459,-0.1799006393105994,0.2115645278539049,0.0
1668,-0.077819824,-0.23631951410753166,0.1773393270987579,0.0
1669,-0.055541992,-0.2687562851991216,0.1419832800641628,0.0
1670,-0.042114258,-0.27494831045639123,0.10719715065457527,0.0
1671,-0.026092529,-0.2542336708646123,0.07466553401940038,0.0
1672,-0.016326904,-0.20754314219342945,0.04595570608442329,0.0
1673,-0.008850098,-0.1373076156467012,0.022426039141427843,0.0
1674,0.003356934,-0.04729572793669471,0.005148366089420593,0.0
1675,0.013122559,0.057604117250512385,-0.0051525130276280735,0.0
1676,0.023040771,0.1716442763193846,-0.008140062399213423,0.0
1677,0.035247803,0.2885090888215166,-0.0038868034859034437,0.0
1678,0.044708252,0.40162591990868307,0.007125683658003031,0.0
1679,0.054626465,0.504485685106286,0.024027176572155973,0.0
1680,0.069122314,0.590962506372431,0.04559860372913831,0.0
1681,0.08605957,0.6556215550060519,0.07032953358633656,0.0
1682,0.107727051,0.6940030617207085,0.09649102988428135,0.0
1683,0.131378174,0.7028691861798747,0.12222086986811419,0.0
1684,0.153656006,0.6803993944321609,0.14561742688790769,0.0
1685,0.166625977,0.6263197815416921,0.16483783835752414,0.0
1686,0.171813965,0.5419529954401304,0.17819548431385043,0.0
1687,0.172729492,0.43017852105237975,0.18425138834373517,0.0
1688,0.146179199,0.2952982655985367,0.1818940322664322,0.0
1689,0.08392334,0.14280952824637808,0.1704023542307154,0.0
1690,-0.001220703,-0.02090396659259844,0.14948745574487163,0.0
1691,-0.084228516,-0.18894329283627564,0.11930980194008033,0.0
1692,-0.149536133,-0.35430033155007346,0.08047040231620128,0.0
1693,-0.192260742,-0.5102662759523424,0.03397644693486616,0.0
1694,-0.213775635,-0.650809709483983,-0.01881609564901706,0.0
1695,-0.21697998,-0.7708950266673223,-0.07627860527655336,0.0
1696,-0.21194458,-0.8667190984527091,-0.13659899362985917,0.0
1697,-0.195007324,-0.9358531801938312,-0.19787751443553328,0.0
1698,-0.185089111,-0.9772865742843658,-0.2582226409959636,0.0
1699,-0.159759521,-0.9913772309926361,-0.3158409028016788,0.0
1700,-0.139923096,-0.9797214796518178,-0.36911549195773424,0.0
1701,-0.124969482,-0.9449600237753603,-0.4166696921369922,0.0
1702,-0.104370117,-0.8905401078817349,-0.4574125954876407,0.0
1703,-0.092010498,-0.8204544870291691,-0.49056601338835226,0.0
1704,-0.079803467,-0.7389767932242757,-0.5156728332176069,0.0
1705,-0.070648193,-0.6504105050035587,-0.5325882324680039,0.0
1706,-0.058288574,-0.5588654395506829,-0.5414560731082453,0.0
1707,-0.048370361,-0.4680719370705079,-0.542673434053885,0.0
1708,-0.045776367,-0.38123906223896126,-0.5368465959856076,0.0
1709,-0.041809082,-0.3009594738130029,-0.5247418888164037,0.0
1710,-0.036010742,-0.22916031031717507,-0.5072346799496795,0.0
1711,-0.029602051,-0.16709668853826393,-0.485259463484689,0.0
1712,-0.026092529,-0.11538234778112494,-0.45976355671305597,0.0
1713,-0.021514893,-0.07405061799526588,-0.4316663727351351,0.0
1714,-0.018768311,-0.04263815568792123,-0.40182566396209707,0.0
1715,-0.018768311,-0.02028365566776867,-0.371011558627794,0.0
1716,-0.021057129,-0.0058339118193120225,-0.3398886701731316,0.0
1717,-0.020904541,0.0020498903323294855,-0.30900606990267393,0.0
1718,-0.016174316,0.004791933363514106,-0.27879449518906196,0.0
1719,-0.018615723,0.003812725747584395,-0.24956983472720448,0.0
1720,-0.015106201,0.0004550283094351751,-0.22154170105778362,0.0
1721,-0.014038086,-0.004072966577256117,-0.1948257739980063,0.0
1722,-0.011444092,-0.008736387275782995,-0.16945857355863933,0.0
1723,-0.006408691,-0.012694904822224344,-0.1454133872360325,0.0
1724,-0.003814697,-0.015308125278026621,-0.1226162191733295,0.0
1725,-0.004272461,-0.016127748273569473,-0.10096082854456646,0.0
1726,-0.001678467,-0.014879655887619542,-0.08032215946075846,0.0
1727,0.001068115,-0.011439330526093945,-0.060567711791550426,0.0
1728,0.003356934,-0.005803950593581143,-0.041566641252824395,0.0
1729,0.003356934,0.0019357583773179296,-0.02319659233324864,0.0
1730,0.005645752,0.011621292027276506,-0.005348447680283757,0.0
1731,0.008392334,0.02304773284709876,0.01207068604822581,0.0
1732,0.008087158,0.03597939886622124,0.029135848641675087,0.0
1733,0.008239746,0.0501592222885929,0.04590350990159045,0.0
1734,0.008392334,0.06531207456289324,0.062411337242928355,0.0
1735,0.008087158,0.08114297722663234,0.07867807823438605,0.0
1736,0.010681152,0.09733174342567244,0.09470328683393422,0.0
1737,0.01083374,0.11352602307449128,0.1104667462384302,0.0
1738,0.010681152,0.1293349514910143,0.1259275782398795,0.0
1739,0.012817383,0.14432563469072798,0.14102316556536562,0.0
1740,0.013122559,0.1580245575524405,0.1556681381139977,0.0
1741,0.012817383,0.16992567917252066,0.16975377585155305,0.0
1742,0.015563965,0.17950648920152223,0.1831482509983842,0.0
1743,0.015716553,0.18625265553763834,0.19569816199990098,0.0
1744,0.015716553,0.18969112313541314,0.20723179542052567,0.0
1745,0.018157959,0.18943066278793597,0.21756448558746386,0.0
1746,0.016021729,0.18520796183078655,0.2265063246124253,0.0
1747,0.015563965,0.17693643759917435,0.23387230924471664,0.0
1748,0.013275146,0.16475407193096558,0.23949480006204774,0.0
1749,0.015716553,0.1490657307588032,0.24323791846192402,0.0
1750,0.024414063,0.1305746646924797,0.24501322436244585,0.0
1751,0.040893555,0.11029725182761528,0.24479571133009043,0.0
1752,0.071716309,0.08955474098184837,0.24263884251428175,0.0
1753,0.056915283,0.06993615995503646,0.23868706333911766,0.0
1754,0.066833496,0.05322813576286153,0.2331840220733176,0.0
1755,0.046081543,0.04131040848129851,0.2264746828056684,0.0
1756,0.00213623,0.036020112864140856,0.21899970006180594,0.0
1757,-0.016174316,0.038992753205186734,0.21128088103399228,0.0
1758,-0.009155273,0.05149220385936505,0.2038972757568947,0.0
1759,-0.009002686,0.0742450738322679,0.19745233357491876,0.0
1760,-0.020141602,0.10729592055376617,0.19253353280572008,0.0
1761,-0.02822876,0.1498993053025261,0.18966681593124912,0.0
1762,-0.028381348,0.20046304079104127,0.18926895994655804,0.0
1763,-0.023498535,0.2565544141828921,0.19160162297631092,0.0
1764,-0.020751953,0.3149776037144595,0.19673118490160763,0.0
1765,-0.016021729,0.37192590459906255,0.2044985927433613,0.0
1766,-0.011291504,0.42320689124631966,0.21450318933166998,0.0
1767,-0.006408691,0.46453249834980853,0.2261039198558213,0.0
1768,-0.019683838,0.49185938667656737,0.23844036397498433,0.0
1769,-0.077514648,0.5017579542072514,0.2504747298882525,0.0
1770,-0.034637451,0.491780844950609,0.2610542699165595,0.0
1771,0.235748291,0.4607935504495431,0.26899152367818435,0.0
1772,0.925292969,0.4092214358776951,0.273157370692364,0.0
1773,0.851287842,0.33916345433767325,0.2725792364100594,0.0
1774,0.053405762,0.2543313269666244,0.2665344760132818,0.0
1775,-0.41229248,0.1598005649927649,0.25462791096364346,0.0
1776,-0.417785645,0.06160077458794183,0.23684363160010533,0.0
1777,-0.24887085,-0.03379149794594931,0.21356461890239362,0.0
1778,-0.12878418,-0.11998106379010218,0.18555847643877324,0.0
1779,-0.087432861,-0.1911386871753127,0.15393206597281334,0.0
1780,-0.067596436,-0.24240086807824407,0.12006098758752719,0.0
1781,-0.048370361,-0.2701663202115383,0.08550137140156142,0.0
1782,-0.038299561,-0.27228613044380257,0.05189169896072902,0.0
1783,-0.031280518,-0.2481532788120934,0.02085184948305073,0.0
1784,-0.023498535,-0.19870147196123464,-0.0061143406408425355,0.0
1785,-0.01159668,-0.1263249886751348,-0.027707769669823547,0.0
1786,-0.000762939,-0.03473157930773453,-0.0429098457273495,0.0
1787,0.010681152,0.0712599138377378,-0.05104219092461854,0.0
1788,0.019683838,0.18596620561402114,-0.051808049199939095,0.0
1789,0.030212402,0.3031201290315634,-0.045314011837373706,0.0
1790,0.042419434,0.41617516629396184,-0.03207143409420822,0.0
1791,0.056610107,0.5186239895263318,-0.012977619248498516,0.0
1792,0.071716309,0.604320481863486,0.010722475891798519,0.0
1793,0.089874268,0.6677936139787497,0.037492574992693775,0.0
1794,0.110778809,0.7045401093406284,0.06557730026343564,0.0
1795,0.13381958,0.7112813620327684,0.09308736386445376,0.0
1796,0.154571533,0.6861690090784872,0.1180940439024149,0.0
1797,0.17074585,0.6289234272792914,0.1387284998625432,0.0
1798,0.18157959,0.5408907635964206,0.153280821563135,0.0
1799,0.179138184,0.4250073716896665,0.16029324011154278,0.0
1800,0.148620605,0.2856659725352083,0.1586417734524367,0.0
1801,0.082550049,0.12848542690350592,0.1476008457087997,0.0
1802,-0.007476807,-0.04000484193062623,0.12688619500783835,0.0
1803,-0.09475708,-0.21274520388714957,0.09667269543546067,0.0
1804,-0.160675049,-0.3825622493518196,0.05758549785178983,0.0
1805,-0.199737549,-0.5425877059169851,0.01066496597669966,0.0
1806,-0.219421387,-0.6866458493672821,-0.04269201064908255,0.0
1807,-0.224151611,-0.809579501738883,-0.1008098876926799,0.0
1808,-0.216674805,-0.9074922529385565,-0.1618257047250281,0.0
1809,-0.2003479,-0.977893941691723,-0.2237871149242755,0.0
1810,-0.185241699,-1.0197461000117072,-0.2847505149726405,0.0
1811,-0.16784668,-1.0334127584527224,-0.3428730557952313,0.0
1812,-0.150909424,-1.0205289294469888,-0.3964932510890771,0.0
1813,-0.134735107,-0.9838038761906989,-0.44419615179692185,0.0
1814,-0.116577148,-0.9267789401550202,-0.48486046838444413,0.0
1815,-0.102081299,-0.8535604741203663,-0.5176864626477521,0.0
1816,-0.082397461,-0.7685476381445941,-0.5422047858096264,0.0
1817,-0.065460205,-0.6761728020923621,-0.5582676262027678,0.0
1818,-0.058898926,-0.5806693661330852,-0.5660244894609084,0.0
1819,-0.051879883,-0.4858782305560072,-0.5658856301943955,0.0
1820,-0.043182373,-0.395100203279123,-0.5584765698822068,0.0
1821,-0.035705566,-0.31099766821884045,-0.5445872753194471,0.0
1822,-0.030975342,-0.23554518872786256,-0.5251194608033786,0.0
1823,-0.028381348,-0.17002561283826906,-0.5010351570561964,0.0
1824,-0.030822754,-0.11506577257954588,-0.4733092101112809,0.0
1825,-0.028533936,-0.07070406984878744,-0.4428877849770539,0.0
1826,-0.026092529,-0.03648117236141277,-0.41065430297279437,0.0
1827,-0.023651123,-0.011544747833557346,-0.37740358940021607,0.0
1828,-0.018920898,0.005240399065836114,-0.343824397796005,0.0
1829,-0.016174316,0.0151844055486835,-0.3104899475920525,0.0
1830,-0.016174316,0.01967287891218827,-0.2778556890779032,0.0
1831,-0.011444092,0.02008055581913092,-0.246263204139138,0.0
1832,-0.00869751,0.017701201700778203,-0.215948962770621,0.0
1833,-0.01373291,0.01369535852996036,-0.18705657569309017,0.0
1834,-0.006561279,0.009056181694397944,-0.15965119988354015,0.0
1835,-0.004119873,0.004592407409218744,-0.13373485137105545,0.0
1836,-0.001373291,0.0009264762913503456,-0.10926154231472619,0.0
1837,-0.001831055,-0.00149495951951421,-0.08615137051395844,0.0
1838,0.000915527,-0.0023814374691762032,-0.06430293041168995,0.0
1839,0.005950928,-0.0015734932750011699,-0.04360366483477696,0.0
1840,0.008239746,0.0009847043066341064,-0.023938016608349107,0.0
1841,0.005645752,0.005271814091134461,-0.005193452037918945,0.0
1842,0.000762939,0.011212389771106914,0.012735400398087229,0.0
1843,0.002288818,0.018694856991279755,0.029944134690100144,0.0
1844,0.005493164,0.02758356098012229,0.04651705419809106,0.0
1845,0.005493164,0.03772480924665481,0.06252633436068539,0.0
1846,0.005493164,0.0489474340784984,0.07803147249678521,0.0
1847,0.005950928,0.06105887274411784,0.09307870523984157,0.0
1848,0.005645752,0.07383815795986252,0.10770016653935378,0.0
1849,0.00793457,0.08702751953452566,0.1219126680000337,0.0
1850,0.008087158,0.10032447979721426,0.13571610080323737,0.0
1851,0.008544922,0.1133763572123204,0.14909157527782402,0.0
1852,0.008392334,0.1257789780554206,0.1619995210373287,0.0
1853,0.012817383,0.1370811441717556,0.1743780591357297,0.0
1854,0.012664795,0.14679602005863507,0.18614202054281737,0.0
1855,0.012817383,0.15442010139921436,0.19718301619238485,0.0
1856,0.015563965,0.15945984843486602,0.20737095885727974,0.0
1857,0.015411377,0.1614654504983225,0.21655739482703187,0.0
1858,0.012969971,0.16007055424518923,0.22458092452225126,0.0
1859,0.010681152,0.15503614830311122,0.2312748775364194,0.0
1860,0.008239746,0.1462961489569698,0.23647726116089093,0.0
1861,0.010986328,0.13400154846113355,0.24004282332496646,0.0
1862,0.008087158,0.11855924405098615,0.24185686060496558,0.0
1863,0.014801025,0.1006608899875047,0.24185015926259915,0.0
1864,0.028991699,0.0812964128179289,0.2400141860961257,0.0
1865,0.060577393,0.061746392695654906,0.23641535905257685,0.0
1866,0.056610107,0.04354766330492632,0.2312069527883051,0.0
1867,0.06072998,0.028427672698793677,0.22463698130707493,0.0
1868,0.052947998,0.01820575163457694,0.2170503200892969,0.0
1869,0.004119873,0.01466342477106504,0.20888346113864706,0.0
1870,-0.018463135,0.019390697980256402,0.20065068973247216,0.0
1871,-0.018920898,0.03361987119626975,0.19292113324212556,0.0
1872,-0.011138916,0.05806178757178178,0.18628699829701997,0.0
1873,-0.019226074,0.09276088100862627,0.18132427143482516,0.0
1874,-0.025787354,0.13698501304529223,0.17854808806973577,0.0
1875,-0.023651123,0.18916444190145365,0.17836577979290258,0.0
1876,-0.021209717,0.24689174202511716,0.18103123035902127,0.0
1877,-0.018768311,0.30699113971039804,0.1866045637567189,0.0
1878,-0.016174316,0.36566149391399894,0.19492131406819596,0.0
1879,-0.01373291,0.41869208251457724,0.20557504999955614,0.0
1880,-0.01373291,0.4617445730589365,0.2179169189202163,0.0
1881,-0.021057129,0.49068815966909574,0.23107471715262887,0.0
1882,-0.083618164,0.5019678635146473,0.2439928722411885,0.0
1883,-0.067749023,0.4929782933269149,0.25549312490440373,0.0
1884,0.177612305,0.46240646464048324,0.264353698690314,0.0
1885,0.882720947,0.4104981178074727,0.2694023298140673,0.0
1886,0.929412842,0.339196200863211,0.26961581961986836,0.0
1887,0.160522461,0.2521062437211846,0.2642162570083073,0.0
1888,-0.366668701,0.15426891454273128,0.252752688185896,0.0
1889,-0.44342041,0.051761325991497874,0.23515779338057793,0.0
1890,-0.296783447,-0.04881238325740274,0.21177233940199977,0.0
1891,-0.155029297,-0.14086314727278373,0.1833349321339055,0.0
1892,-0.105285645,-0.21832203563700842,0.15093934562680825,0.0
1893,-0.077819824,-0.27606180622633675,0.11596519898054516,0.0
1894,-0.060119629,-0.3102125758563294,0.07998957469631016,0.0
1895,-0.048065186,-0.3183667018970546,0.0446875953113501,0.0
1896,-0.038146973,-0.2996782157549873,0.011729505081218719,0.0
1897,-0.025939941,-0.2548673799000303,-0.017319131209022134,0.0
1898,-0.017242432,-0.18614320012507596,-0.04108862516714579,0.0
1899,-0.006866455,-0.09705725824574185,-0.0584834275731372,0.0
1900,0.003356934,0.007698224927927285,-0.06874422869111975,0.0
1901,0.015411377,0.12253612015867102,-0.07149166916211154,0.0
1902,0.025177002,0.24125295535133415,-0.06675032181735478,0.0
1903,0.036773682,0.3573301592054543,-0.054952386389256896,0.0
1904,0.04699707,0.46424820388171556,-0.03692123876839456,0.0
1905,0.061798096,0.5558036982170212,-0.01383562673224352,0.0
1906,0.079040527,0.6264187327495834,0.01282405953012954,0.0
1907,0.10055542,0.671430538210526,0.04134535962662043,0.0
1908,0.12512207,0.6873480496491571,0.0698663845844543,0.0
1909,0.147399902,0.6720607072566408,0.09646803058110152,1.0
1910,0.163574219,0.6249843427074747,0.11927154453333152,0.0
1911,0.174407959,0.5471298933880346,0.13653656705117653,0.0
1912,0.176849365,0.44108344456328236,0.14675428913133184,0.0
1913,0.155487061,0.31089099139313897,0.14873014810918472,0.0
1914,0.097045898,0.16184831747626685,0.1416506688614285,0.0
1915,0.01159668,0.00020507627511476278,0.12512971940209547,0.0
1916,-0.076141357,-0.16719848001045418,0.09923063623338232,0.0
1917,-0.146331787,-0.3333352929779789,0.06446233958380247,0.0
1918,-0.192260742,-0.49140344443054684,0.021749551602680862,0.0
1919,-0.214233398,-0.635212593649403,-0.02762069009428489,0.0
1920,-0.218963623,-0.7595144994095144,-0.08207214457283037,0.0
1921,-0.212097168,-0.860254204878456,-0.1398265786124512,0.0
1922,-0.197143555,-0.9347276461401813,-0.19899869864067185,0.0
1923,-0.180969238,-0.9816411669936287,-0.2576922205886308,0.0
1924,-0.164031982,-1.0010773148380174,-0.31409088822787823,0.0
1925,-0.146942139,-0.9943784591710714,-0.366539127170554,0.0
1926,-0.126953125,-0.963964796889064,-0.41360823156585275,0.0
1927,-0.111541748,-0.9131061436659492,-0.4541453678462025,0.0
1928,-0.097198486,-0.845667744882422,-0.48730410225204296,0.0
1929,-0.084991455,-0.765849474692902,-0.5125564973413533,0.0
1930,-0.072631836,-0.677935596482503,-0.5296879862330727,0.0
1931,-0.065460205,-0.5860691446307711,-0.5387771607543935,0.0
1932,-0.056152344,-0.4940613693846878,-0.540163269336475,0.0
1933,-0.047912598,-0.4052429326024765,-0.5344046073318379,0.0
1934,-0.043182373,-0.32235995348169244,-0.5222311128233673,0.0
1935,-0.03616333,-0.24751480168782797,-0.5044943870406456,0.0
1936,-0.032043457,-0.182148860032114,-0.482118081964952,0.0
1937,-0.026092529,-0.12706240194439614,-0.4560511847806394,0.0
1938,-0.026092529,-0.08246526947692731,-0.4272262260570427,0.0
1939,-0.023498535,-0.04805117161220232,-0.396523889736039,0.0
1940,-0.018615723,-0.02308810459636456,-0.36474494731555734,0.0
1941,-0.018615723,-0.00651757382845378,-0.3325899098754315,0.0
1942,-0.014038086,0.002944104019288884,-0.30064631761110167,0.0
1943,-0.016479492,0.006708232511053883,-0.2693831875781004,0.0
1944,-0.01373291,0.006224624345636545,-0.23915182793882567,0.0
1945,-0.013885498,0.0029044950927050762,-0.21019200495687154,0.0
1946,-0.011291504,-0.001942294343031347,-0.1826423158909133,0.0
1947,-0.008850098,-0.007154485765319333,-0.15655357196903083,0.0
1948,-0.00869751,-0.011751102917736567,-0.13190402267848889,0.0
1949,-0.009002686,-0.014948451687277636,-0.10861534384457654,0.0
1950,-0.006256104,-0.016164078269622115,-0.08656845242873513,0.0
1951,-0.003967285,-0.01500986267176051,-0.06561838479528644,0.0
1952,0.000915527,-0.011276780679308578,-0.04560766791847284,0.0
1953,0.000915527,-0.004914043861912238,-0.02637781183323124,0.0
1954,0.003356934,0.003994700382578566,-0.007778743951614561,0.0
1955,0.00579834,0.015255675708812484,0.01032382144489957,0.0
1956,0.005950928,0.028587800452904148,0.02804294412164887,0.0
