ECG
1.0919278948344358
0.972439476483841
0.6859882780990955
0.335161185533164
0.01714905875180677
-0.2047644844862402
-0.3196044112502943
-0.33800171274907864
-0.28945291366660936
-0.21737707423929853
-0.15019020941904065
-0.10141521860792892
-0.07444326269137283
-0.06252798252795203
-0.055573314329555645
-0.05100306039218966
-0.046912448093947706
-0.042101281543491
-0.03607805725166424
-0.028949290226616454
-0.020495724916488697
-0.010435472426714817
0.0014406846505321627
0.015295807242821879
0.031246799797466328
0.04936441028152054
0.06967323018178143
0.09215169450478898
0.11687290490272603
0.14363763430085663
0.17186460478806836
0.20096718487333196
0.23034534837280216
0.2593894458195537
0.2874869955350981
0.31402284939933794
0.3383791928505682
0.35993554488547597
0.3780687580591403
0.3921530184850314
0.40155984583501264
0.40566452970997713
0.40424502586873484
0.39761990926904667
0.386177459663391
0.37034683604788093
0.35059879486974044
0.3274568220861408
0.3014950049287463
0.27332859719773067
0.2436137319369007
0.2130474214336976
0.18236755721919568
0.15235291006810317
0.12381935039670557
0.09727378655696355
0.07285309446985286
0.0506837318182322
0.03084955006602017
0.013391794458195543
-0.0016908959792030368
-0.01444280577676435
-0.024960696937840136
-0.03339397892955972
-0.0399345044346391
-0.04481672907779706
-0.04831771470269272
-0.05075666250017046
-0.05233861762916244
-0.05315923698865598
-0.053357070802894715
-0.05305772731045786
-0.052373872764260476
-0.05140523143155301
-0.050238585593921796
-0.04894777554728854
-0.047593643154837675
-0.04621946033305529
-0.04484756103685973
-0.04348654337982881
-0.04213206348987625
-0.04076675214584138
-0.03938461726556677
-0.0380014314394578
-0.036630807629861366
-0.03528312480375363
-0.0339655279327401
-0.03268192799305573
-0.031433001965564505
-0.030216192835759936
-0.02902570959376481
-0.027852528284656567
-0.026684852056338384
-0.025509489316262332
-0.02431159476854056
-0.023073263586176552
-0.02177335694680356
-0.02038750203268351
-0.01888809203070822
-0.01724428613239839
-0.015422009533904279
-0.013385191015983147
-0.011126196044246885
-0.008340783199412484
-0.004610584869266039
0.00047019431967250044
0.007294777501359972
0.016243026554757782
0.02767916924739467
0.04195411848930134
0.05940621495177504
0.08036122706737854
0.1052986122129189
0.13377563473671014
0.16397798588114415
0.19417384155455536
0.22275445215995637
0.2482341425950387
0.26925031225217455
0.2845634350184135
0.2930570592754859
0.2937378078998002
0.2857224951491241
0.26922144216681226
0.24652258148188486
0.21987364565825424
0.19123345842238
0.16227192993374992
0.1343700567848763
0.1086199220013003
0.08582469504158924
0.0664986317973359
0.05086707459316148
0.03886645218671261
0.029954123812845325
0.02358074179976915
0.018609297611363068
0.012747760774135732
0.0025411730258075747
-0.016624366848767252
-0.050115288104425726
-0.09440182749385344
-0.13270954038542446
-0.1415063966147904
-0.09089395654508002
0.04575531516503728
0.28235623169108093
0.5960025138474078
0.9175891099990556
1.13556644038743
1.161358363586114
0.984114277271662
0.6604130084666135
0.3095605882553923
0.028398858601171417
-0.14681135125396874
-0.21115172953294145
-0.1902406951187852
-0.124135699833324
-0.05154607049272175
0.004201410843810056
0.03663411832378302
0.0534499625671811
0.06163530385124024
0.06595691608447768
0.06965291699709564
0.07438876538483644
0.0802638446816427
0.08709679426839209
0.09534203031266948
0.1052131841856942
0.11689911441978756
0.13056390670837092
0.14634687390596862
0.1643799370717697
0.18475609782427319
0.20733820713291812
0.23190005993346904
0.2581420936516428
0.2856913882031132
0.31410166599350936
0.34285329191841163
0.3713532931155605
0.3989368306421523
0.4248682137804968
0.4483385822911538
0.4684656586312332
0.48437018817201133
0.4955893126890057
0.5018666987980785
0.5030650960410646
0.4991702719493845
0.49029101204404385
0.4766591198356326
0.45862941682432784
0.4366797424998905
0.4114109543416666
0.3835469174865962
0.35393072004481363
0.32351903053865233
0.29336673652463247
0.264059914041061
0.23599354579447746
0.2095735290206504
0.1851241462229882
0.1628880651725345
0.14302633890797103
0.12561840573561864
0.11066208922943388
0.09807359823101179
0.087687526849585
0.07925685446202395
0.07245294574288415
0.06694940970631985
0.06264311379315922
0.059351073380517136
0.05689867336449347
0.05512963741238613
0.05390598896966634
0.053108051183069355
0.052634446900595065
0.05240209867150709
0.05234622874633377
0.05242035907686691
0.05259631131616335
0.05286420681854337
0.053231108081603015
0.053682952501007804
0.05420938681075628
0.05480253450606128
0.055452446252803156
0.05615030414458802
0.056888425777061685
0.05766026424790951
0.05846040815685688
0.05928458160566872
0.06012964419814942
0.06099359104014359
0.06187555273953508
0.06277579540624778
0.06369572065224517
0.06463786559153033
0.06560590284014611
0.06660461086800011
0.0676396344335579
0.0687145477394206
0.06978137365379952
0.07093772229087669
0.07236672291259538
0.07428550055280872
0.07694517601727964
0.0806308658836812
0.08566168250159657
0.09239073399251811
0.10120512424984866
0.11252595293890144
0.1268083154968981
0.14454130313297148
0.16648912649025516
0.19318801061908314
0.22252360760217144
0.25235195004436844
0.28077672587354924
0.306149278340623
0.32706860601952886
0.3423813628072359
0.3511818579237432
0.3528120559120815
0.3468615766383114
0.3331676952915248
0.3120374848931231
0.28561918796108776
0.25640716689864945
0.22649417309117903
0.19757628000092875
0.17095126286341536
0.14753235509344786
0.12784950098257883
0.11204916274648491
0.10066776265576707
0.09673449435242074
0.09427721321765851
0.08755372087308283
0.07298671559319064
0.049163792305373606
0.01683744258992122
-0.02107494531998415
-0.05949108653826499
-0.09143867421944295
-0.09776847891969084
-0.023764537386229315
0.15895173434623097
0.4395256875367672
0.7678694407382813
1.054661879797488
1.1788844937155667
1.0972577402793602
0.8455968378531428
0.4947239562888703
0.1502093803308669
-0.09510906378054816
-0.23448555919456807
-0.2758038518502388
-0.2420215641755902
-0.17113837005651114
-0.10213628482528803
-0.04924899993658868
-0.01680102631863998
-0.0016429124857512967
0.0057462147044040944
0.01045232285598157
0.01426322957382022
0.018488075766352155
0.02378790820723788
0.030197862727722947
0.03778801718694566
0.04682764861731662
0.05750581926547411
0.06997245991035703
0.0843434000202663
0.10071371183196845
0.11914353019470111
0.13965662668565526
0.16226762675564607
0.18673365166734843
0.21268998337003908
0.2397226756033736
0.26736855389739317
0.29511521557251347
0.3224010297395295
0.34861513729962174
0.37309745094434543
0.3951386551556354
0.41398020620581083
0.42887781859682705
0.43941081502170404
0.44525282513227077
0.44619997440721326
0.44218299715069415
0.4332672231516228
0.4196530623819446
0.4016760281499035
0.37980673710004803
0.35465090921322984
0.3269493678065974
0.2975767036638588
0.2672450399459967
0.23657308312882452
0.20623220735516598
0.1767994721944077
0.1487612084122388
0.12251106932777343
0.09834795041544964
0.07647597152748208
0.05700447689387154
0.03994803512239904
0.02522643919862375
0.012664706485889604
0.002053552292974217
-0.006706516116513564
-0.013846047685932963
-0.019591438368124894
-0.0241517629444724
-0.027718775024898945
-0.03046678241699862
-0.03255095094661925
-0.03410774579135418
-0.03525627673058575
-0.03609818979034837
-0.03671703381143702
-0.037178773735168855
-0.03753205312217568
-0.03780819823353221
-0.03804454628869875
-0.03827045090859016
-0.0384933227603359
-0.038719693132565694
-0.038955213935409704
-0.03920465770049873
-0.03947180561607657
-0.039756500540451364
-0.040054351354924446
-0.040359916310175645
-0.040666874278385716
-0.04096802475323541
-0.04125528784990612
-0.04151970430507966
-0.04175143547693827
-0.041939763345164506
-0.042073090510941415
-0.04213894019695273
-0.04212395624738212
-0.0419756036154688
-0.04164778715021358
-0.04119141385065004
-0.040614000449921174
-0.03987947910548081
-0.038897892176174544
-0.03752438818520383
-0.03555961360011792
-0.03274997787600676
-0.028787054023438997
-0.02330751582628799
-0.015893137841733386
-0.0062058106914838
0.006277106682341204
0.022132782010339386
0.0415902813720145
0.06452918939994005
0.09047962537119217
0.11862658186186302
0.14781579611123932
0.1765449902441382
0.20311132405618562
0.22573153895321357
0.24248147603138862
0.2520069121498997
0.2535530024456409
0.2469642803332083
0.23268465750490064
0.2117574239307211
0.18571781165278423
0.15628326780359938
0.12552000814330158
0.09518248481804353
0.06665523471411428
0.040948728477468714
0.018703872603918467
0.0001932899062252651
-0.014418508048722887
-0.024583959242713168
-0.03234593258372519
-0.039988799675303104
-0.049636041229333884
-0.06325024706604941
-0.08263311611402266
-0.10942545641016808
-0.14510718509974838
-0.19087887407972412
-0.22861963364523433
-0.21543491331239625
-0.12262956304682258
0.0606932890918144
0.32762907925412665
0.6525463671268057
0.9484534099109468
1.0951136601134925
1.0382453341752704
0.7961076954418009
0.45167198963056127
0.10929898643268425
-0.15947542023919498
-0.3231423479206256
-0.3798194183861294
-0.3579231459497823
-0.2975694576765585
-0.22846667542616084
-0.16987294792635546
-0.13058847065635734
-0.10861883750047534
-0.09517850172305023
-0.08697913650473751
-0.08186998317359687
-0.07806931933828895
-0.07416445888807678
-0.06911175199282495
-0.062236585102998614
-0.053233380949665475
-0.04216559854449528
-0.02946573317975695
-0.015535944634189947
0.00021075187958398932
0.01794911827471736
0.03773450842165073
0.059534795362511536
0.08323037131110535
0.1086141476529191
0.13539155494512695
0.16318054291657996
0.1915115804678107
0.2198276556710393
0.24748427577016266
0.27388560021553426
0.2984282734497016
0.32027629335901203
0.33871883036765177
0.35317789752832696
0.3632083622321202
0.3684977715304868
0.36886634317105027
0.36426700235139015
0.35478608014773116
0.3406432570731098
0.3221843053861229
0.2996650759063454
0.27378335282455346
0.24539704478872834
0.21529690106659657
0.18420651154562467
0.15278230673303198
0.12161355153276471
0.09122197808785396
0.06206158042104379
0.03451914339072899
0.008914292475055617
-0.014500506228085259
-0.03553994600106191
-0.05403846928839788
-0.069953608447829
-0.08350614199075367
-0.09491524117061358
-0.10438852715597918
-0.1121220710305506
-0.11830039379315435
-0.12309646635774506
-0.12667173941633575
-0.12918314760858018
-0.13079212954139663
-0.13165080289848308
-0.1318997352786648
-0.13166794419589567
-0.13107290903128851
-0.1302206165513018
-0.12920552068972396
-0.12811052529878741
-0.12700698414585218
-0.12595186374859207
-0.12497724754439242
-0.12411226888380375
-0.12338579710067142
-0.12282590677110163
-0.12245009508507164
-0.12224141907397461
-0.1221749147261372
-0.12222482435984139
-0.12236459662332433
-0.12256688649477832
-0.12280355528235104
-0.12304567062414495
-0.12326350648821784
-0.12342654317258307
-0.1235034673052085
-0.12346217184401767
-0.12326975607688921
-0.12289252562165684
-0.12229599242610947
-0.12144969289590686
-0.12033866654000983
-0.11897494160538212
-0.1173410009583204
-0.11537578923056911
-0.11297472740456146
-0.10999049337762522
-0.10623341538942661
-0.10147038072355993
-0.09542473842906657
-0.08777629932043628
-0.07816133597760719
-0.06617258274596359
-0.051359235736339076
-0.033226952825016164
-0.011057424674660133
0.014747298133025024
0.04296515850582965
0.07236389026613169
0.1017011893180469
0.12972471364743388
0.15517208332189994
0.17677088049078912
0.19323864938519034
0.20328289631793808
0.20560108968360696
0.19904345879422597
0.18438699148448714
0.16358156241045416
0.13844198728154955
0.11062423432036111
0.08162239468012565
0.05276960415530181
0.02524034174612189
5.048112605015014e-05
-0.021942709358232358
-0.03974765567639076
-0.05100269935662621
-0.05833823934933507
-0.06495109935765159
-0.07336254212981216
-0.08541826945915698
-0.10228842218412633
-0.12446758018826133
-0.15177476240020935
-0.1833536378725352
-0.21767753318352837
-0.2524145044392926
-0.2666713136430528
-0.21436146784341864
-0.0694764202665567
0.1684857969028847
0.47452057252175883
0.7978094380979873
1.041362083872632
1.1012821193890108
0.9501700895038192
0.6425815654056863
0.28949388490714056
-0.012243819137682318
-0.2114211536538365
-0.29683800933479293
-0.29111629063294775
-0.23747265509739057
-0.16916404945475713
-0.10876195021530533
-0.06815236526052992
-0.04692668683200473
-0.03662781338153768
-0.03187545857295233
-0.028813437157387725
-0.02506075896230893
-0.019711628891504403
-0.013280839457974317
-0.00578699623777578
0.003275414094444461
0.014125373783081532
0.026931759855089984
0.041823007853222946
0.058888612706041586
0.07817912872791366
0.09971745105097654
0.12352209241319595
0.14928449201739252
0.17658805310085957
0.20496937594791828
0.2339182578899149
0.2628776933052212
0.2912438736192295
0.318366187304369
0.3435472205389174
0.36604628485592655
0.38508766386153304
0.3998603840620322
0.4098297668339082
0.41478886742050347
0.41464145977731953
0.4094138882970631
0.39925527695207663
0.3844374914376958
0.36535496023238845
0.3425246690123382
0.31658616065145895
0.28830153522138585
0.25855544999147756
0.2283443396683447
0.19836121881572583
0.16913453738715736
0.14118894504830284
0.11495671349363512
0.09077773841973573
0.06889953952529725
0.04947726051111204
0.032573669080090045
0.018159156937246516
0.00611173978970523
-0.0037829426533018224
-0.011827205920312734
-0.018208721644816687
-0.023115938854710815
-0.026786455474990877
-0.029436909766734184
-0.03125132041337335
-0.032388064839495134
-0.032986201322818945
-0.033165508170722655
-0.03302648372024342
-0.03265034633807709
-0.03209883433174946
-0.03141355513804665
-0.03061786047097024
-0.029749436549951616
-0.028823426902232916
-0.027840137751341566
-0.026798910037598638
-0.025698119418117997
-0.024535742021390226
-0.023316145151703837
-0.022047875403152808
-0.02073861965016237
-0.01939509948395078
-0.01802307121252981
-0.016627325860704693
-0.015211689170074172
-0.01377902159903043
-0.01233121832275894
-0.010869209233238981
-0.00939295893924268
-0.007901466766335921
-0.006381632150092671
-0.004752014350418662
-0.0030705427675188687
-0.0013756923234683124
0.0003564023764875326
0.002209350111949384
0.004326382054942979
0.006910351769918361
0.01022373521375018
0.014588605629680413
0.020385608159380977
0.0280536009752965
0.03808200657591835
0.05085719524723632
0.06693391074234097
0.08664777361644409
0.10996862033084773
0.1365004842713342
0.165480625426028
0.1957790666065934
0.22589993047441048
0.25398155559696756
0.277814270306096
0.29550682908732495
0.3059343370754485
0.3084647054218933
0.30297608465901676
0.2898568647001033
0.2700056748393687
0.24483138375195881
0.21625309949394828
0.18669766941911342
0.15819222515480247
0.1317919156524892
0.10840103604307538
0.08858951285251877
0.07259284318720224
0.06031209473393547
0.051313905759948465
0.04483048511290155
0.03989656891454044
0.03453415841435682
0.02352314713033686
0.002694833449052296
-0.03049171361185567
-0.07599386208906854
-0.11618478368559405
-0.12226268046083653
-0.06681692419175002
0.07596533962660643
0.3225504352603346
0.6359567241166183
0.9433789424476027
1.147430581310228
1.1380788394245174
0.9248297491104717
0.6003522022927337
0.2578017848043103
-0.01244744881961254
-0.1693799858072132
-0.22203300803416892
-0.19427307609815034
-0.12477391969870961
-0.05460502527953214
-0.0009812778140948974
0.03095172539109898
0.04551740334895054
0.05310994136362615
0.05781339465693435
0.06188249875345536
0.06667569550517348
0.07262460042950447
0.07967347915471056
0.08814382310606576
0.09825660130052578
0.11020199003030191
0.12413982911822213
0.14019962191773028
0.15848057099874988
0.17917007318095993
0.20217539349926428
0.2271649628993989
0.25375870842511233
0.2815280532181657
0.30999591651832875
0.338636713663395
0.3668763560891592
0.3940922513294325
0.419613303016038
0.4427199108788093
0.46264397074560054
0.47856887454226943
0.48962931390969394
0.4952260260397127
0.4954252630824877
0.49043629332693894
0.4805357507518656
0.4660675161689223
0.44744271722261636
0.4251397283903087
0.3997041709822139
0.37174881747982286
0.3419523229960089
0.3110595726435082
0.2798826740663222
0.24930098174130627
0.22025955511235162
0.19333919426441643
0.16863706014476623
0.1462770100314393
0.12633264859544893
0.10883376994596283
0.09376664324806991
0.08107401272278282
0.07065509764703104
0.062365592353671534
0.056017666231480745
0.05137996372515753
0.04817760433532294
0.046092182618518406
0.044834092075089295
0.04433469474111788
0.04446699746258106
0.04510889891560042
0.04614653666496662
0.04747214640735419
0.048990634302180196
0.05062012453280972
0.05229195930655549
0.05395069885467833
0.05555412143238704
0.05707322332394933
0.05849285765210236
0.05981262622716448
0.06101221865198009
0.06205640822225102
0.06291333268921283
0.0635545899091842
0.06395531969321551
0.06410741229422444
0.06403408787575376
0.06376553601013743
0.06333540637479258
0.06278080875221896
0.06214231302999947
0.0614639492007998
0.06079320736236877
0.060181037717537834
0.059681850574221984
0.059353516345418585
0.059257365549208275
0.05945818880875443
0.06001996545385299
0.060896493558654716
0.06246623739043149
0.0652293206407842
0.06963525524934744
0.0760901299929524
0.08495661048562532
0.09655393917858743
0.11115793536026039
0.12900099515625735
0.1502720584174286
0.1751304737534974
0.2040062428337132
0.23499277830292195
0.2655363211185996
0.29345359962314854
0.3169318295439147
0.3345350809840355
0.34522846939714746
0.348356754111679
0.3436351835507684
0.33114949352249606
0.31135675413548464
0.28550542115578886
0.2560145160722454
0.22513374882747667
0.19472331442242594
0.16625389291634088
0.14080664942677873
0.11907323412960419
0.10135578225899397
0.08756691410742587
0.0772269448046299
0.06957858862885592
0.06364899597710522
0.057268788506087326
0.04697248340776837
0.02800238248838853
-0.0050659150285035075
-0.04938411737645983
-0.0896442013486815
-0.10068467582044129
-0.050562225598977696
0.09063033366208996
0.3344106618449433
0.6504651814700242
0.9647837394193174
1.1589884759068116
1.1516097031693489
0.9417780178954174
0.6105011094107764
0.26308504678923816
-0.0177160174315234
-0.1941702301089135
-0.2680771369256473
-0.25722004456277575
-0.19446700822700033
-0.12225467513366642
-0.062418078787377436
-0.02249311205775972
-0.0021071841668937473
0.006874832212655242
0.012120487342624794
0.015781904061457293
0.0194698379668023
0.024105083902932343
0.029918663193308166
0.036861899278281124
0.04523626794065341
0.05525263601456392
0.06708523283798946
0.08087165801882655
0.09671385705142377
0.11467907474347162
0.13479827983107495
0.1572214787933552
0.1817806459898933
0.20801785386841687
0.2354507104694675
0.2635710071449204
0.29184916338966377
0.3197345821250965
0.3466556496991249
0.37201973588617687
0.3952131938871805
0.41560136032957773
0.43252855526732203
0.44531808218087787
0.45327209065114016
0.45581012624970857
0.45299956286030246
0.4451239336464814
0.4325153295444539
0.4155618412832263
0.3947153460589018
0.3704780886964358
0.34340082020005736
0.31408279775325976
0.28317178471880255
0.25136405063871614
0.21940437123428427
0.18808602840606986
0.15824897858242093
0.13043168083488949
0.10476286445762324
0.08137716013539431
0.06036828984543603
0.04178906296887219
0.025644676251195354
0.011878959861618485
0.0003909466724404424
-0.008961239151568138
-0.016360382153170143
-0.022030175582654524
-0.026235221397840642
-0.029281030264078245
-0.03147142154247583
-0.03290344427358316
-0.03371034421320483
-0.03402800578110184
-0.033979881298397296
-0.033676990987575095
-0.03321792297248057
-0.032685341508488445
-0.03213322308194355
-0.03159838526147635
-0.03110521299157905
-0.030665659118105495
-0.03027924438827034
-0.029932929200649987
-0.0296105952243241
-0.029320795261287214
-0.02907474396174069
-0.028880151212531673
-0.028739816250710454
-0.028653218826122137
-0.028616937004188433
-0.028624647165907104
-0.02866763186484448
-0.028737929471889783
-0.02882627919640946
-0.028920525366844373
-0.0290056106272119
-0.029063575937105603
-0.02907356057169532
-0.02901180212172723
-0.028851636493523902
-0.02856349790898388
-0.02811491890558234
-0.027470530336370563
-0.0266421486729415
-0.02562629641887073
-0.02395815599366794
-0.02116638798747454
-0.016829060598786007
-0.010570132034812853
-0.0020531614696996476
0.009018797549400999
0.022903197102334887
0.039817994895937694
0.059941654264040314
0.08341314416746735
0.11069853076375649
0.1405647698515064
0.17049942231015386
0.19834117400686402
0.22228343569058506
0.2408743339405854
0.25301746760619154
0.25798664791799886
0.2554249103572648
0.24533056478019094
0.22805663687330094
0.20432166690630196
0.17568947412802033
0.14441450306874562
0.11246919507831732
0.08147481319132292
0.05270144212708107
0.027067988289646204
0.0051421797678109955
-0.01285943366490465
-0.027071480550236632
-0.03798003173808998
-0.04628240591656175
-0.05291505348059146
-0.060171615859687264
-0.07122235105727534
-0.09006866659021809
-0.1215571493208303
-0.16655235912402974
-0.2097619792787589
-0.22913339486808218
-0.19826315680526532
-0.08746873335237809
0.12012375800092488
0.41168750091634254
0.736199201425936
1.003430356613077
1.0935975647511185
0.9759214302427743
0.70415263424821
0.35468892194662327
0.02544415830654391
-0.20659903861899231
-0.333605344352294
-0.36489086301401213
-0.32507789564831957
-0.2536368126675223
-0.18540965017496017
-0.1332386606193393
-0.10144556601616302
-0.08688256759064128
-0.07986212575362486
-0.07523375694700359
-0.07149778254462397
-0.0674245315988854
-0.06230020381476481
-0.05592686954981545
-0.04837984781711045
-0.03937028383543194
-0.028660019286242955
-0.01606428121329541
-0.001449794569916256
0.015265226184800596
0.03411180086348292
0.055070741352870545
0.07807149293954345
0.10309123290716285
0.1303952938509158
0.1592451071830091
0.18878377554266146
0.21821280343653526
0.2467920973914077
0.2738399659541479
0.2987331196917315
0.32090667119123695
0.3398541350598465
0.3551274279248437
0.3663368684336204
0.3731511772536658
0.37529747707257444
0.3725612925980436
0.36478655055787423
0.35185537400737765
0.33383678971451036
0.31157536519198453
0.285974009355252
0.2578718137457113
0.228044052530708
0.19720218250353835
0.16599384308343348
0.1350028563155828
0.10474922687111933
0.07568914204712207
0.04821493523864369
0.02265473717667632
-0.0007273698642210743
-0.021731124120158152
-0.040221483070200716
-0.05612434232183134
-0.06950239188253954
-0.0806061322611449
-0.08968182035235464
-0.09696237366518928
-0.10266737032298084
-0.1070030490633731
-0.11016230923832077
-0.1123247108140916
-0.11365647437126324
-0.11431048110472566
-0.11442627282368009
-0.1141300519516396
-0.11353468152642844
-0.11273937277415225
-0.1118238775299
-0.11084902760531716
-0.10986211116176504
-0.10889707697491677
-0.10797453443475719
-0.10710175354558224
-0.10627266492599967
-0.10546785980892881
-0.10465459004160048
-0.10379755516859777
-0.10293005683418532
-0.10208161104940172
-0.10127293577498032
-0.10052052781872284
-0.09983649219536227
-0.0992253255370034
-0.0986828608330144
-0.09820032311694957
-0.09776462746792114
-0.09735837901059909
-0.09695987291521184
-0.09654309439754537
-0.09607771871894386
-0.09552911118630913
-0.0948583271521016
-0.094022112014339
-0.0929729012165974
-0.09165882024801102
-0.0900918166607863
-0.08811897608113246
-0.08524018938944766
-0.08099782379998853
-0.07497856877503684
-0.06681225938014623
-0.05617187628413795
-0.042773545759106656
-0.02637653968041699
-0.006783275526704023
0.016160683620123066
0.04277189249147666
0.0725400333101535
0.10320568425786457
0.13270471857365962
0.15925901860153527
0.18137560025790703
0.19784999569254733
0.20777267860002036
0.21052097499666275
0.2057573030496522
0.1934291730770086
0.1738301817755414
0.14852388871636818
0.1198096128671655
0.08968977177249379
0.05983899552999526
0.031604126790394566
0.0060042207575018575
-0.01626945481180072
-0.034853419607538225
-0.04971198076665692
-0.061109834028806855
-0.06890234567061163
-0.07465775670834184
-0.08076368787321651
-0.08969219481997172
-0.10399976812686257
-0.12632733329566315
-0.1594002507516604
-0.20824397009105175
-0.25909469036356536
-0.26501947460281144
-0.19443231200780806
-0.03433721762614657
0.20967039011819544
0.5134048557234461
0.8311824259394839
1.0560443864080724
1.0890342365840548
0.9134190715360174
0.594536002054615
0.24285838923484046
-0.05153760695143453
-0.24196985154013229
-0.3216628089778597
-0.31168752366501906
-0.2549514348008469
-0.18502291165571969
-0.1241789868257555
-0.0834053562327013
-0.061266003982263464
-0.04986150534749061
-0.04410147615373446
-0.040240866141737865
-0.03585062165371147
-0.02981757485632526
-0.022344443740714343
-0.01410933560695609
-0.004461621004220134
0.006831670913939151
0.019941927570511685
0.03499639291683141
0.05207816743256911
0.07122622227541259
0.09243627722891486
0.11569190090165819
0.14090049247823477
0.1676508903877177
0.19548496057832682
0.22390984009920548
0.2523974970403625
0.2803847305327336
0.30727317074811933
0.3324292788992394
0.3551843472397076
0.3748344990640146
0.39064068870757074
0.4018956053298405
0.40829772036697976
0.4097412771807029
0.40623181015397525
0.3978902474074987
0.3849395377638761
0.367700732161866
0.3466094760510193
0.3222171704158256
0.29519097177567233
0.26631379218489576
0.2364842992327243
0.2065577071130051
0.1770260852366617
0.1484342454000076
0.121245003555318
0.095831427914442
0.0724767402235581
0.051373509885256706
0.03262415759415086
0.01625042992423445
0.0022013575430684515
-0.009661900925621907
-0.0195679345985217
-0.02777192655221522
-0.034382852800140924
-0.03960965220654141
-0.04365441359925452
-0.04670055485152498
-0.04891282288199823
-0.05043729365472469
-0.05140137217915782
-0.05191379251015374
-0.052064617747972546
-0.05192524192831423
-0.05154987644760459
-0.05097821900156708
-0.05024305845677543
-0.049387080228934135
-0.048419729975945375
-0.0473471803987231
-0.0461746333139519
-0.04490631965408331
-0.04354549946733803
-0.04209446191770619
-0.04055452528494528
-0.03892603696458299
-0.03720837348644655
-0.035399949910408526
-0.03349823511532254
-0.03150259860327288
-0.029423625835368374
-0.027274168364968314
-0.02506610688633753
-0.02281035120950796
-0.020516840260280923
-0.018163824012897335
-0.01571072468618342
-0.013241004860615154
-0.010794063797908563
-0.008354037289790112
-0.005849797658000006
-0.003154953754287474
-8.785096041562159e-05
0.0035884288118427465
0.008168184105836236
0.014014829174481689
0.021552611970650667
0.031188472380429214
0.0433406219034628
0.05869421497266785
0.07761499288657762
0.10010806284469323
0.125817897947461
0.1540283371963163
0.18366258549363026
0.21328321364276032
0.2410921583480276
0.265154552319998
0.28376464925585254
0.29546320535860826
0.29935646860744153
0.2951222023946594
0.28301261759103724
0.2638544118986887
0.23904876985109094
0.21057136281304556
0.180766042432715
0.1512148583521666
0.1233070033775976
0.09812309319394431
0.07639110423918194
0.058486373704376815
0.04443159953364502
0.033896840424173444
0.026199596091866312
0.020834029352288817
0.015512993412936295
0.006666728360099661
-0.009257818678923675
-0.03579699353584445
-0.07616478398890128
-0.12176220602841299
-0.14817131678670747
-0.12858967885999242
-0.034765804197265326
0.1564273469509003
0.43789615598541903
0.7632800084870363
1.0457135017900747
1.1632326938798894
1.067955842044635
0.8091154607993608
0.4634043595901446
0.13269685887191252
-0.10073639563318597
-0.2266991117268917
-0.2543382439953846
-0.21071901976009053
-0.13831018657945537
-0.06894008925616592
-0.01743020291854862
0.0120676127870945
0.026027559291323245
0.03408940593167576
0.03937007778921042
0.0440979097046262
0.04956490047949129
0.056121820834986465
0.06368387449545093
0.07258315922857962
0.08303386623172633
0.09522124654037717
0.10930173705909188
0.12540296056152572
0.14362372569042198
0.16411135415550288
0.1869241428564867
0.2117576200577403
0.23825482315126642
0.2660181914512793
0.29460710920188843
0.32353101444677446
0.35225605609585464
0.3802064662473838
0.4067645601878927
0.4312707363922414
0.45302347652359376
0.47127934543340344
0.48525299116145126
0.4941373204400061
0.4976081861481145
0.49582947468970406
0.48903535792043373
0.4775177703395909
0.46162640909010627
0.4417720074991028
0.4184365585899389
0.3921632960951496
0.3635532163943784
0.3332650785109248
0.3020154041116912
0.2705784775072446
0.23978634565176213
0.210528294579418
0.18336760728275892
0.15838249453417644
0.13568780117829918
0.11536004714885317
0.09743742746868478
0.08191967508741167
0.06876388099927418
0.05786787248938681
0.04908317399176902
0.04222296669611294
0.03706210688122073
0.03333712591501349
0.03074623025453356
0.028964994745291957
0.027868717652706574
0.027346332595800476
0.02726481553326587
0.027503398403453432
0.0279535691243719
0.028519071593687974
0.029115905688727094
0.029675215132449723
0.030169487164995568
0.03060030047338436
0.03098169506587708
0.031339966930394494
0.03171390580572599
0.03213792856963856
0.032624362576466684
0.03318634927193543
0.033839989003211814
0.03460434101890404
0.03550142346906225
0.036556213405178506
0.03779664678018605
0.039253617784770406
0.040958566231543043
0.042906972893229714
0.045064778733900815
0.04739987026783271
0.049883092910744754
0.052488250979796064
0.05519210769358934
0.05797438517216707
0.0608177644370153
0.06370788541106012
0.06660904834294105
0.06942188416984091
0.07250937234225094
0.07629451273462699
0.08116567493788646
0.08747768979975755
0.09558769164766112
0.10586320340440317
0.11863984616233281
0.13421861073025032
0.15286585763343152
0.17481331711361947
0.20062316662694687
0.22918107833352555
0.2580092961654515
0.28497476479218203
0.30829522061895337
0.326539191786759
0.3386259981723972
0.34382575138842586
0.34175920531247256
0.33237709640110674
0.3159424580229954
0.2931003517728661
0.2655426209290724
0.23555672453903023
0.20510112199353067
0.17577119603081742
0.14879925273660988
0.12505452154412602
0.1050431552340317
0.0889082299344924
0.07642974512112978
0.06702462361705712
0.05985749970805247
0.05390812262336476
0.046952408953845434
0.03539738652336285
0.014264822551959204
-0.02143016109199905
-0.06665639758939555
-0.10630435702427475
-0.11707112098803382
-0.06792279085097522
0.06745166171303708
0.3036448831811915
0.6165176817770738
0.9360058417427312
1.1496051965301841
1.1708091795029407
0.9919136143236235
